,alt,rh,temp,pressure,att_bsc
0,151.73187255859375,92.0,4.0,1018.0704956054688,-
1,152.99790954589844,95.73612976074219,4.01251220703125,1018.0004272460938,-
2,157.93701171875,94.02877807617188,4.149383544921875,1017.2322998046875,-
3,163.5217742919922,93.17140197753906,4.24090576171875,1016.5177001953125,-
4,167.8138191492509,-,-,-,2.2520555519975145e-06
5,168.79913330078125,92.66445922851562,4.26397705078125,1016.09375,-
6,173.9116973876953,92.58132934570312,4.2562255859375,1015.3898315429688,-
7,178.711181640625,92.50748443603516,4.2247314453125,1014.655029296875,-
8,183.25172424316406,92.28020477294922,4.1988525390625,1014.170166015625,-
9,187.7194061279297,91.99495697021484,4.22955322265625,1013.5701904296875,-
10,192.4485321044922,91.92460632324219,4.230743408203125,1012.9686889648438,-
11,197.4130401611328,92.13004302978516,4.17169189453125,1012.367431640625,-
12,197.69966075729837,-,-,-,1.4281718357215666e-06
13,202.46432495117188,92.3134536743164,4.133270263671875,1011.7620239257812,-
14,207.3948516845703,92.52754974365234,4.116973876953125,1011.149169921875,-
15,212.24118041992188,92.79108428955078,4.086395263671875,1010.5289916992188,-
16,216.9973602294922,92.99877166748047,4.050750732421875,1009.9010009765625,-
17,221.98837280273438,93.25410461425781,4.00701904296875,1009.2664794921875,-
18,227.3136749267578,93.47830200195312,3.953338623046875,1008.6297607421875,-
19,227.58550236534586,-,-,-,1.2308251200441495e-06
20,232.73333740234375,93.50867462158203,3.908660888671875,1007.994384765625,-
21,237.9803466796875,93.46974182128906,3.8919677734375,1007.3639526367188,-
22,243.15103149414062,93.47319030761719,3.8768310546875,1006.7402954101562,-
23,248.000244140625,93.61798095703125,3.850555419921875,1006.1237182617188,-
24,252.69007873535156,94.05757904052734,3.7913818359375,1005.5147705078125,-
25,257.30059814453125,94.32427978515625,3.7376708984375,1004.9119262695312,-
26,257.47134397339335,-,-,-,1.046149261048168e-06
27,261.974365234375,94.47608184814453,3.693023681640625,1004.3143310546875,-
28,266.8480529785156,94.53565216064453,3.653900146484375,1003.7196044921875,-
29,271.87908935546875,94.162109375,3.64276123046875,1003.1250610351562,-
30,276.7801818847656,93.5180892944336,3.634490966796875,1002.5286254882812,-
31,281.53997802734375,92.69740295410156,3.620025634765625,1001.9268188476562,-
32,286.0079650878906,91.63029479980469,3.627197265625,1001.317138671875,-
33,287.35718558144083,-,-,-,8.390026185219343e-07
34,290.65985107421875,90.98784637451172,3.63250732421875,1000.6982421875,-
35,295.849853515625,90.94927978515625,3.6104736328125,1000.0707397460938,-
36,301.28912353515625,90.77761840820312,3.570465087890625,999.4364624023438,-
37,306.5784606933594,89.91278076171875,3.53607177734375,998.7982788085938,-
38,311.6520080566406,88.45441436767578,3.5673828125,998.159912109375,-
39,316.5098571777344,87.31092071533203,3.6177978515625,997.5244140625,-
40,317.2430271894883,-,-,-,6.584500797020681e-07
41,321.5563049316406,86.98050689697266,3.614654541015625,996.8924560546875,-
42,326.6637878417969,87.10376739501953,3.576019287109375,996.2638549804688,-
43,331.5927429199219,87.2293930053711,3.5467529296875,995.6380004882812,-
44,336.4203186035156,87.40149688720703,3.51171875,995.0128173828125,-
45,341.2492370605469,87.66542053222656,3.4615478515625,994.3855590820312,-
46,346.5687561035156,87.94190216064453,3.40264892578125,993.7538452148438,-
47,347.1288687975358,-,-,-,5.763551701283206e-07
48,352.25592041015625,88.074462890625,3.359619140625,993.1170043945312,-
49,357.6676940917969,88.18900299072266,3.32177734375,992.4761352539062,-
50,362.6814880371094,88.32461547851562,3.26092529296875,991.8327026367188,-
51,367.6664123535156,88.19727325439453,3.216583251953125,991.1879272460938,-
52,372.73663330078125,87.97582244873047,3.185882568359375,990.5422973632812,-
53,377.0147104055833,-,-,-,5.516601923372828e-07
54,377.7822570800781,87.731689453125,3.17266845703125,989.8958740234375,-
55,383.2015686035156,87.63890838623047,3.15997314453125,989.2468872070312,-
56,389.0889587402344,87.8075180053711,3.120880126953125,988.5966186523438,-
57,394.8492126464844,88.03585052490234,3.066192626953125,987.9442138671875,-
58,400.32562255859375,88.26128387451172,3.01116943359375,987.2896728515625,-
59,405.73162841796875,88.48483276367188,2.9593505859375,986.6324462890625,-
60,406.9005520136308,-,-,-,4.996651813789768e-07
61,411.131591796875,88.68629455566406,2.90753173828125,985.971923828125,-
62,416.46142578125,88.99088287353516,2.8603515625,985.30712890625,-
63,421.67022705078125,89.37989044189453,2.806060791015625,984.6383056640625,-
64,426.95074462890625,89.65846252441406,2.75579833984375,983.966552734375,-
65,432.7090148925781,89.94405364990234,2.697967529296875,983.2939453125,-
66,436.78639362167826,-,-,-,4.6009392302217345e-07
67,438.6955871582031,90.1322021484375,2.639739990234375,982.6220703125,-
68,444.4678649902344,90.07974243164062,2.5987548828125,981.9531860351562,-
69,449.904541015625,90.1189193725586,2.572540283203125,981.290283203125,-
70,454.81134033203125,90.30345916748047,2.533905029296875,980.6343994140625,-
71,459.4619445800781,90.47891235351562,2.489532470703125,979.985107421875,-
72,464.3554382324219,90.74464416503906,2.447052001953125,979.3389282226562,-
73,466.67223522972574,-,-,-,4.634678646049717e-07
74,469.5691833496094,90.96700286865234,2.37884521484375,978.6903686523438,-
75,475.4310607910156,90.90565490722656,2.3292236328125,978.0369873046875,-
76,481.5333557128906,90.60881805419922,2.356231689453125,977.3761596679688,-
77,487.09393310546875,90.39765930175781,2.3631591796875,976.7080688476562,-
78,492.564697265625,90.55300903320312,2.319732666015625,976.0364990234375,-
79,496.5580768377732,-,-,-,5.02411821607174e-07
80,498.26995849609375,90.75402069091797,2.249969482421875,975.367431640625,-
81,503.73870849609375,90.72006225585938,2.206756591796875,974.7044067382812,-
82,508.92877197265625,90.59851837158203,2.18353271484375,974.0487060546875,-
83,513.8563232421875,90.50037384033203,2.150360107421875,973.4010009765625,-
84,519.1570434570312,90.79207611083984,2.10345458984375,972.7597045898438,-
85,524.83837890625,91.45291900634766,2.0478515625,972.1253051757812,-
86,526.4439184458207,-,-,-,5.719634485757439e-07
87,530.3944702148438,91.88076782226562,1.995849609375,971.4968872070312,-
88,535.4950561523438,91.94265747070312,1.952484130859375,970.8753051757812,-
89,540.3679809570312,92.08279418945312,1.91754150390625,970.26318359375,-
90,545.093017578125,92.29596710205078,1.8765869140625,969.65966796875,-
91,549.7964477539062,92.41797637939453,1.83526611328125,969.0619506835938,-
92,554.6983032226562,92.54397583007812,1.789581298828125,968.4674072265625,-
93,556.3297600538682,-,-,-,6.677312605292005e-07
94,559.7703247070312,92.55571746826172,1.7454833984375,967.8738403320312,-
95,565.0298461914062,92.39224243164062,1.720062255859375,967.2808837890625,-
96,570.2505493164062,92.24018859863281,1.694091796875,966.6880493164062,-
97,575.155029296875,92.12950897216797,1.65887451171875,966.0948486328125,-
98,579.9735107421875,92.21389770507812,1.617156982421875,965.5020141601562,-
99,584.978515625,92.27812194824219,1.57598876953125,964.9099731445312,-
100,586.2156016619157,-,-,-,7.708895626940362e-07
101,590.0648193359375,91.99000549316406,1.562408447265625,964.3170166015625,-
102,594.9744873046875,91.8211669921875,1.53765869140625,963.723388671875,-
103,599.6270751953125,91.92652130126953,1.497344970703125,963.1278076171875,-
104,604.3775634765625,92.23888397216797,1.4532470703125,962.530029296875,-
105,609.4979248046875,92.75233459472656,1.405364990234375,961.9306030273438,-
106,614.8098754882812,93.31465148925781,1.35162353515625,961.329345703125,-
107,616.1014432699632,-,-,-,8.771941686897272e-07
108,619.9478149414062,93.614990234375,1.302703857421875,960.7276000976562,-
109,624.9848022460938,93.8163833618164,1.253204345703125,960.127197265625,-
110,630.0986328125,94.11236572265625,1.197021484375,959.5286865234375,-
111,635.12060546875,94.32623291015625,1.146697998046875,958.9329833984375,-
112,639.9513549804688,94.44953155517578,1.09735107421875,958.33935546875,-
113,644.7688598632812,94.53997802734375,1.045135498046875,957.7481079101562,-
114,645.9872848780107,-,-,-,9.884695252932375e-07
115,649.73876953125,94.40263366699219,1.0020751953125,957.1581420898438,-
116,654.8911743164062,94.14568328857422,0.971649169921875,956.568115234375,-
117,660.0247192382812,94.12198638916016,0.930328369140625,955.9765014648438,-
118,665.0263671875,94.0289306640625,0.88604736328125,955.3818969726562,-
119,669.8536376953125,93.51835632324219,0.846588134765625,954.7836303710938,-
120,674.6293334960938,92.71525573730469,0.837738037109375,954.1824340820312,-
121,675.8731264860581,-,-,-,1.1043961173543092e-06
122,679.395751953125,92.31632232666016,0.821746826171875,953.5796508789062,-
123,684.3141479492188,92.35663604736328,0.783905029296875,952.9755859375,-
124,689.3363037109375,92.32449340820312,0.7459716796875,952.37158203125,-
125,694.5756225585938,92.15513610839844,0.722686767578125,951.7691650390625,-
126,700.0339965820312,92.03411865234375,0.695281982421875,951.1678466796875,-
127,705.5397338867188,92.0505599975586,0.66644287109375,950.56787109375,-
128,705.7589680941056,-,-,-,1.1992775753945835e-06
129,710.9447021484375,92.26409149169922,0.634979248046875,949.969970703125,-
130,716.167236328125,92.56307220458984,0.59722900390625,949.3748168945312,-
131,721.1522827148438,92.75907897949219,0.555511474609375,948.7828979492188,-
132,725.94287109375,92.93684387207031,0.50604248046875,948.1947631835938,-
133,730.6650390625,93.13313293457031,0.45703125,947.6095581054688,-
134,735.2880859375,93.26797485351562,0.41583251953125,947.0250244140625,-
135,735.6448097021531,-,-,-,1.3350194777874153e-06
136,739.981689453125,93.49932098388672,0.3765869140625,946.4403076171875,-
137,744.8133544921875,93.78597259521484,0.3316650390625,945.8546142578125,-
138,749.7781372070312,93.98979187011719,0.289398193359375,945.2678833007812,-
139,754.834716796875,94.2088394165039,0.2459716796875,944.682373046875,-
140,760.1002807617188,94.45330047607422,0.198944091796875,944.1005249023438,-
141,765.324951171875,94.6455307006836,0.153533935546875,943.5234375,-
142,765.5306513102006,-,-,-,1.4843027582051215e-06
143,770.2086181640625,94.85438537597656,0.113189697265625,942.9493408203125,-
144,774.8287963867188,95.14797973632812,0.064666748046875,942.375732421875,-
145,779.635498046875,95.55513000488281,0.014495849609375,941.8001098632812,-
146,784.5669555664062,95.98682403564453,-0.03326416015625,941.2193603515625,-
147,789.6156616210938,96.29377746582031,-0.07977294921875,940.6317749023438,-
148,794.896728515625,96.55687713623047,-0.12713623046875,940.036865234375,-
149,795.4164929182481,-,-,-,1.7421167655247953e-06
150,800.3687133789062,96.81726837158203,-0.1751708984375,939.4335327148438,-
151,805.7255249023438,97.04390716552734,-0.2244873046875,938.82177734375,-
152,810.6826782226562,97.11254119873047,-0.270233154296875,938.2020874023438,-
153,815.4126586914062,97.06800842285156,-0.30859375,937.5740356445312,-
154,820.4142456054688,97.1084213256836,-0.3521728515625,936.9384155273438,-
155,825.3023345262956,-,-,-,2.279143019809534e-06
156,825.8629150390625,97.09624481201172,-0.39581298828125,936.2954711914062,-
157,831.5324096679688,96.77259063720703,-0.425689697265625,935.6472778320312,-
158,837.2195434570312,95.84717559814453,-0.4132080078125,934.996337890625,-
159,842.5820922851562,94.97852325439453,-0.42242431640625,934.3455810546875,-
160,847.7424926757812,94.64028930664062,-0.452972412109375,933.6968383789062,-
161,852.9868774414062,94.64491271972656,-0.491912841796875,933.0501098632812,-
162,855.188176134343,-,-,-,2.449566087588631e-06
163,858.531982421875,94.77696990966797,-0.5382080078125,932.4043579101562,-
164,864.4782104492188,94.92305755615234,-0.5927734375,931.7574462890625,-
165,870.4945068359375,94.78141784667969,-0.628265380859375,931.108642578125,-
166,876.4527587890625,94.80221557617188,-0.668914794921875,930.45751953125,-
167,882.3452758789062,95.23097229003906,-0.723876953125,929.8064575195312,-
168,885.0740177423905,-,-,-,2.6995868217634726e-06
169,887.9700317382812,95.74771881103516,-0.78546142578125,929.1572875976562,-
170,893.316162109375,96.06407928466797,-0.844390869140625,928.510498046875,-
171,898.7074584960938,96.2654037475586,-0.8948974609375,927.86669921875,-
172,904.2772216796875,96.45861053466797,-0.943572998046875,927.227294921875,-
173,909.82373046875,96.68524169921875,-0.993316650390625,926.59228515625,-
174,914.959859350438,-,-,-,3.991988139819424e-06
175,915.2655029296875,96.95001220703125,-1.044189453125,925.9594116210938,-
176,920.61962890625,97.05767059326172,-1.097564697265625,925.3271484375,-
177,925.9874267578125,97.1585922241211,-1.144927978515625,924.6919555664062,-
178,931.3765869140625,97.3626480102539,-1.1846923828125,924.051025390625,-
179,936.8925170898438,97.4394302368164,-1.21319580078125,923.4022216796875,-
180,942.6651611328125,97.5033950805664,-1.252960205078125,922.7471923828125,-
181,944.8457009584855,-,-,-,2.467776150712379e-05
182,948.7310180664062,97.83790588378906,-1.30523681640625,922.0907592773438,-
183,954.7606201171875,98.20352935791016,-1.36419677734375,921.4369506835938,-
184,960.4714965820312,98.2742919921875,-1.417266845703125,920.78857421875,-
185,965.9085083007812,98.21715545654297,-1.464447021484375,920.1461181640625,-
186,971.2344970703125,98.27176666259766,-1.496917724609375,919.50927734375,-
187,974.731542566533,-,-,-,7.813406389939724e-05
188,976.6231079101562,98.45125579833984,-1.532501220703125,918.8779296875,-
189,982.0368041992188,98.68455505371094,-1.58160400390625,918.2516479492188,-
190,987.404296875,98.90410614013672,-1.62451171875,917.6282958984375,-
191,992.7366333007812,99.11610412597656,-1.65863037109375,917.0057373046875,-
192,998.1484375,99.26123809814453,-1.704620361328125,916.37939453125,-
193,1003.7396850585938,99.4445571899414,-1.7559814453125,915.7460327148438,-
194,1009.6054077148438,99.82596588134766,-1.808837890625,915.1045532226562,-
195,1015.5450439453125,100.0,-1.8575439453125,914.4563598632812,-
