,alt,rh,temp,pressure,att_bsc
0,151.73187255859375,97.0,12.5,997.4215087890625,-
1,154.38427734375,100.0,12.47540283203125,996.9080810546875,-
2,158.79879760742188,100.0,12.49932861328125,996.1204223632812,-
3,164.1514892578125,99.72940826416016,12.460968017578125,995.2674560546875,-
4,167.8138191492509,-,-,-,2.118274507423542e-05
5,169.8096160888672,99.1606216430664,12.389617919921875,994.6763305664062,-
6,175.56259155273438,98.65225982666016,12.343231201171875,993.989990234375,-
7,181.7394256591797,98.19049835205078,12.31103515625,993.2597045898438,-
8,188.36875915527344,97.67156219482422,12.280059814453125,992.557373046875,-
9,195.25796508789062,96.97441864013672,12.2918701171875,991.8533325195312,-
10,197.69966075729837,-,-,-,1.1078876852012917e-05
11,202.1241912841797,96.1173324584961,12.33746337890625,991.1572265625,-
12,208.47271728515625,95.43850708007812,12.364044189453125,990.478271484375,-
13,213.7115020751953,95.13301086425781,12.363037109375,989.81884765625,-
14,218.25193786621094,95.05541229248047,12.34271240234375,989.1763305664062,-
15,222.86720275878906,95.1863784790039,12.330963134765625,988.5470581054688,-
16,227.58550236534586,-,-,-,9.614473884967816e-06
17,227.948974609375,95.5306396484375,12.277374267578125,987.9259643554688,-
18,233.1707305908203,95.7016830444336,12.22479248046875,987.3091430664062,-
19,238.1173858642578,95.59044647216797,12.232574462890625,986.6944580078125,-
20,242.8301544189453,95.59764862060547,12.211090087890625,986.081298828125,-
21,247.79165649414062,95.63003540039062,12.177215576171875,985.4666748046875,-
22,253.16749572753906,95.15477752685547,12.174346923828125,984.8484497070312,-
23,257.47134397339335,-,-,-,1.0828499846963094e-05
24,258.9076232910156,94.28262329101562,12.198822021484375,984.2217407226562,-
25,265.11163330078125,93.41033172607422,12.214202880859375,983.5859985351562,-
26,271.4468688964844,92.0552978515625,12.354736328125,982.9445190429688,-
27,277.53875732421875,90.60921478271484,12.523834228515625,982.3038330078125,-
28,283.1607666015625,89.73568725585938,12.5941162109375,981.671630859375,-
29,287.35718558144083,-,-,-,9.071851793319215e-06
30,288.2335205078125,89.04011535644531,12.6656494140625,981.053466796875,-
31,292.9320068359375,88.53240203857422,12.70697021484375,980.4530029296875,-
32,297.5447692871094,88.3710708618164,12.721771240234375,979.870361328125,-
33,302.08831787109375,88.25743865966797,12.7496337890625,979.301025390625,-
34,306.39306640625,88.04231262207031,12.770782470703125,978.7404174804688,-
35,310.5520324707031,87.82145690917969,12.77197265625,978.1829833984375,-
36,314.8138427734375,87.64990234375,12.78985595703125,977.6231689453125,-
37,317.2430271894883,-,-,-,7.273604725871325e-06
38,319.40399169921875,87.41637420654297,12.820709228515625,977.0559692382812,-
39,324.5071105957031,86.99322509765625,12.823974609375,976.4788818359375,-
40,330.0552978515625,86.339111328125,12.86395263671875,975.8904418945312,-
41,336.0066833496094,85.70695495605469,12.930511474609375,975.2943725585938,-
42,341.95794677734375,85.20955657958984,12.97637939453125,974.6951293945312,-
43,347.1288687975358,-,-,-,5.7924621139203006e-06
44,347.3656005859375,84.76167297363281,12.981475830078125,974.09619140625,-
45,352.07452392578125,84.35530090332031,12.97247314453125,973.5,-
46,356.5224609375,83.93682098388672,13.0352783203125,972.9075317382812,-
47,361.185302734375,83.56875610351562,13.095916748046875,972.3170776367188,-
48,366.18902587890625,83.35409545898438,13.086456298828125,971.7271118164062,-
49,371.369873046875,83.1610336303711,13.0728759765625,971.1367797851562,-
50,376.7830505371094,82.97356414794922,13.063079833984375,970.5465087890625,-
51,377.0147104055833,-,-,-,5.021519719125187e-06
52,382.3093566894531,82.74469757080078,13.040283203125,969.9550170898438,-
53,387.71685791015625,82.30199432373047,13.044708251953125,969.361328125,-
54,393.2608642578125,81.9096908569336,13.050933837890625,968.762939453125,-
55,398.94659423828125,81.85969543457031,13.037872314453125,968.15966796875,-
56,403.9031066894531,81.99805450439453,13.006927490234375,967.5523681640625,-
57,406.9005520136308,-,-,-,4.149697642208367e-06
58,408.28741455078125,82.09069061279297,12.967010498046875,966.9427490234375,-
59,413.1067199707031,82.39923095703125,12.91876220703125,966.3330078125,-
60,418.46337890625,82.98939514160156,12.842926025390625,965.72412109375,-
61,424.0413818359375,83.36257934570312,12.7774658203125,965.1165161132812,-
62,429.52880859375,83.32157897949219,12.743072509765625,964.5113525390625,-
63,434.8968811035156,83.2472152709961,12.73126220703125,963.90869140625,-
64,436.78639362167826,-,-,-,3.481276207801489e-06
65,440.2648620605469,83.32250213623047,12.691680908203125,963.31005859375,-
66,445.4853820800781,83.33229064941406,12.65142822265625,962.7153930664062,-
67,450.652587890625,83.27495574951172,12.626861572265625,962.1224975585938,-
68,455.86865234375,83.30609130859375,12.58929443359375,961.529296875,-
69,460.97283935546875,83.40190887451172,12.53857421875,960.9335327148438,-
70,466.1596374511719,83.54402923583984,12.48590087890625,960.334228515625,-
71,466.67223522972574,-,-,-,3.319576583736759e-06
72,471.5550842285156,83.7133560180664,12.44073486328125,959.7305908203125,-
73,477.1078796386719,84.04473876953125,12.403564453125,959.1219482421875,-
74,482.73834228515625,84.4486312866211,12.35888671875,958.508544921875,-
75,488.5307312011719,84.65864562988281,12.306793212890625,957.8909301757812,-
76,494.39630126953125,84.6266098022461,12.2593994140625,957.2687377929688,-
77,496.5580768377732,-,-,-,3.329325356013153e-06
78,500.0472106933594,84.27915954589844,12.218353271484375,956.6419067382812,-
79,505.1430969238281,83.46659088134766,12.193145751953125,956.010009765625,-
80,509.6899108886719,82.53357696533203,12.234588623046875,955.3692016601562,-
81,514.3081665039062,82.1438217163086,12.193817138671875,954.7166137695312,-
82,519.6854858398438,81.12027740478516,12.170806884765625,954.05126953125,-
83,526.0714111328125,79.50369262695312,12.221649169921875,953.3770141601562,-
84,526.4439184458207,-,-,-,3.4694049621584894e-06
85,533.095703125,78.71273803710938,12.20855712890625,952.700927734375,-
86,539.9005737304688,78.56156158447266,12.159271240234375,952.0327758789062,-
87,545.9033813476562,78.48914337158203,12.113189697265625,951.3793334960938,-
88,551.341796875,78.4341049194336,12.0743408203125,950.7408447265625,-
89,556.3297600538682,-,-,-,3.649400452654786e-06
90,556.8115234375,78.58238983154297,12.039337158203125,950.1143798828125,-
91,562.3968505859375,78.6869888305664,11.998779296875,949.4954223632812,-
92,568.0474853515625,78.63756561279297,11.956390380859375,948.8799438476562,-
93,573.7576904296875,78.43436431884766,11.910980224609375,948.26708984375,-
94,579.380615234375,78.38172149658203,11.86627197265625,947.657958984375,-
95,584.897705078125,78.6746826171875,11.822967529296875,947.05517578125,-
96,586.2156016619157,-,-,-,3.825323005201193e-06
97,590.3135375976562,79.19478607177734,11.770965576171875,946.46044921875,-
98,595.6602783203125,79.67840576171875,11.709716796875,945.8750610351562,-
99,600.7279052734375,79.89281463623047,11.645965576171875,945.2965087890625,-
100,605.3295288085938,79.7512435913086,11.594879150390625,944.72021484375,-
101,609.7826538085938,79.27239227294922,11.572601318359375,944.1419067382812,-
102,614.4061889648438,78.76359558105469,11.558135986328125,943.5570678710938,-
103,616.1014432699632,-,-,-,4.036632712596797e-06
104,619.2538452148438,78.47909545898438,11.528106689453125,942.9593505859375,-
105,624.4969482421875,78.3798599243164,11.489227294921875,942.346923828125,-
106,630.2630615234375,78.43463134765625,11.44830322265625,941.721435546875,-
107,636.39892578125,78.47576141357422,11.406890869140625,941.086181640625,-
108,642.7891235351562,78.39905548095703,11.391510009765625,940.4468994140625,-
109,645.9872848780107,-,-,-,4.297545438647769e-06
110,649.0621337890625,78.31871032714844,11.361053466796875,939.8113403320312,-
111,654.91357421875,78.38218688964844,11.31927490234375,939.1858520507812,-
112,660.313232421875,78.70299530029297,11.286773681640625,938.5744018554688,-
113,665.3772583007812,79.23077392578125,11.24493408203125,937.9790649414062,-
114,670.2588500976562,79.59507751464844,11.18939208984375,937.4013061523438,-
115,675.0820922851562,79.67574310302734,11.142486572265625,936.8399047851562,-
116,675.8731264860581,-,-,-,4.579606476227303e-06
117,679.7254638671875,79.58686065673828,11.103668212890625,936.2921752929688,-
118,684.1500244140625,79.39122009277344,11.08807373046875,935.7523193359375,-
119,688.6416625976562,79.30704498291016,11.077911376953125,935.212890625,-
120,693.3492431640625,79.4724349975586,11.062103271484375,934.6693725585938,-
121,698.260498046875,79.73768615722656,11.024871826171875,934.120849609375,-
122,703.1852416992188,79.84639739990234,10.985748291015625,933.56884765625,-
123,705.7589680941056,-,-,-,4.7261252107591e-06
124,708.3482666015625,79.83049011230469,10.9600830078125,933.018310546875,-
125,713.736083984375,79.8160629272461,10.933746337890625,932.4732055664062,-
126,719.0376586914062,79.70523834228516,10.925811767578125,931.9346313476562,-
127,723.7999267578125,79.58759307861328,10.908477783203125,931.3997802734375,-
128,728.2647705078125,79.59530639648438,10.880859375,930.8629760742188,-
129,732.5963134765625,79.6994857788086,10.857940673828125,930.318115234375,-
130,735.6448097021531,-,-,-,4.831861436341135e-06
131,737.0310668945312,79.78846740722656,10.8250732421875,929.7579345703125,-
132,741.7634887695312,79.72877502441406,10.791015625,929.177734375,-
133,746.9116821289062,79.63734436035156,10.783905029296875,928.5771484375,-
134,752.537353515625,79.71143341064453,10.749847412109375,927.9556884765625,-
135,758.470703125,79.84932708740234,10.692169189453125,927.3165893554688,-
136,764.5023803710938,80.01492309570312,10.63446044921875,926.6644287109375,-
137,765.5306513102006,-,-,-,4.948529281320435e-06
138,770.576416015625,80.0779037475586,10.586395263671875,926.0050048828125,-
139,776.8294677734375,79.8928451538086,10.569732666015625,925.3435668945312,-
140,783.23486328125,79.61124420166016,10.55364990234375,924.68408203125,-
141,789.6712036132812,79.48067474365234,10.510894775390625,924.029296875,-
142,795.4164929182481,-,-,-,4.999444157751336e-06
143,795.9623413085938,79.46678924560547,10.4649658203125,923.3826293945312,-
144,801.9757080078125,79.47117614746094,10.4254150390625,922.7449340820312,-
145,807.5863647460938,79.4703369140625,10.373748779296875,922.1153564453125,-
146,812.849609375,79.31739807128906,10.32208251953125,921.4915771484375,-
147,817.819091796875,78.94072723388672,10.296783447265625,920.8687744140625,-
148,822.9680786132812,78.83111572265625,10.27752685546875,920.2427978515625,-
149,825.3023345262956,-,-,-,5.087849550762911e-06
150,828.7587890625,78.936767578125,10.254669189453125,919.61083984375,-
151,835.144775390625,78.9970703125,10.22442626953125,918.9728393554688,-
152,841.6517333984375,79.0115966796875,10.172698974609375,918.3350219726562,-
153,848.1876831054688,79.05095672607422,10.119781494140625,917.70556640625,-
154,854.3592529296875,79.18226623535156,10.04461669921875,917.09326171875,-
155,855.188176134343,-,-,-,5.197549823933634e-06
156,859.882080078125,78.96099090576172,9.985565185546875,916.5043334960938,-
157,864.7567749023438,78.10073852539062,9.95428466796875,915.9417724609375,-
158,868.9979248046875,76.88597106933594,9.976104736328125,915.4030151367188,-
159,872.9186401367188,76.04528045654297,9.99835205078125,914.8820190429688,-
160,876.8920288085938,75.38028717041016,10.06585693359375,914.3716430664062,-
161,880.8098754882812,74.91728210449219,10.08831787109375,913.864013671875,-
162,884.6925659179688,74.77919006347656,10.0595703125,913.3502807617188,-
163,885.0740177423905,-,-,-,5.318854426535705e-06
164,889.3142700195312,74.86378479003906,10.021514892578125,912.821533203125,-
165,894.6666259765625,74.98448944091797,9.98260498046875,912.2711181640625,-
166,900.4060668945312,74.96503448486328,9.949188232421875,911.6956176757812,-
167,906.3751220703125,74.99891662597656,9.895751953125,911.0963745117188,-
168,912.29296875,74.91365051269531,9.83349609375,910.47802734375,-
169,914.959859350438,-,-,-,5.446423822319275e-06
170,918.0491333007812,74.47257995605469,9.785186767578125,909.8473510742188,-
171,923.8251342773438,74.09162902832031,9.744964599609375,909.2115478515625,-
172,929.770263671875,74.09745788574219,9.69696044921875,908.5792236328125,-
173,935.6318969726562,74.33080291748047,9.653228759765625,907.9567260742188,-
174,941.1725463867188,74.61846923828125,9.596221923828125,907.34912109375,-
175,944.8457009584855,-,-,-,5.533501239357824e-06
176,946.4212646484375,74.75792694091797,9.54376220703125,906.7586669921875,-
177,951.5597534179688,74.7666244506836,9.508087158203125,906.1846923828125,-
178,956.7221069335938,74.8736343383789,9.468963623046875,905.6221923828125,-
179,961.8541870117188,75.16638946533203,9.428436279296875,905.0661010742188,-
180,966.8662109375,75.68396759033203,9.37225341796875,904.5118408203125,-
181,971.835205078125,76.05244445800781,9.30718994140625,903.9542846679688,-
182,974.731542566533,-,-,-,5.55999985700426e-06
183,976.9476318359375,75.66818237304688,9.27557373046875,903.3900756835938,-
184,982.3679809570312,75.84376525878906,9.232391357421875,902.8178100585938,-
185,988.1167602539062,76.55362701416016,9.175140380859375,902.23876953125,-
186,993.994384765625,76.78557586669922,9.113922119140625,901.6567993164062,-
187,999.6842651367188,76.18538665771484,9.065521240234375,901.0751342773438,-
188,1004.6173841745805,-,-,-,5.6888284813744825e-06
189,1004.9456787109375,75.29258728027344,9.030426025390625,900.49560546875,-
190,1009.8856811523438,74.6751480102539,9.006988525390625,899.91796875,-
191,1014.9000244140625,74.68421173095703,8.970977783203125,899.340087890625,-
192,1019.9383544921875,75.1113510131836,8.920623779296875,898.7599487304688,-
193,1025.0556640625,75.57337188720703,8.86932373046875,898.1752319335938,-
194,1030.372314453125,75.96227264404297,8.820037841796875,897.5846557617188,-
195,1034.5032257826279,-,-,-,5.912703777728133e-06
196,1035.9024658203125,76.33528137207031,8.761260986328125,896.9898071289062,-
197,1041.6190185546875,76.5411148071289,8.703155517578125,896.3899536132812,-
198,1047.4171142578125,76.59193420410156,8.6513671875,895.7844848632812,-
199,1053.155029296875,76.68147277832031,8.603759765625,895.1747436523438,-
200,1058.7513427734375,76.95130920410156,8.5438232421875,894.560302734375,-
201,1064.2227783203125,77.14661407470703,8.48345947265625,893.9395751953125,-
202,1064.3890673906753,-,-,-,6.042193471889889e-06
203,1069.5428466796875,77.16747283935547,8.429656982421875,893.3094482421875,-
204,1074.8048095703125,77.23278045654297,8.384979248046875,892.664794921875,-
205,1080.3465576171875,77.57950592041016,8.332305908203125,892.0021362304688,-
206,1086.36669921875,78.09081268310547,8.27362060546875,891.31884765625,-
207,1093.0250244140625,78.54689025878906,8.20965576171875,890.61572265625,-
208,1094.2749089987228,-,-,-,6.108923496855991e-06
209,1100.269287109375,78.88134765625,8.14111328125,889.8984375,-
210,1107.833984375,79.10245513916016,8.070587158203125,889.17578125,-
211,1115.06884765625,79.24932861328125,7.99566650390625,888.4573974609375,-
212,1121.37744140625,79.31987762451172,7.926116943359375,887.749267578125,-
213,1124.1607506067703,-,-,-,6.115534385928359e-06
214,1127.090087890625,79.30367279052734,7.8712158203125,887.0521240234375,-
215,1133.0709228515625,79.33781433105469,7.835235595703125,886.3662719726562,-
216,1139.67529296875,79.77059936523438,7.78607177734375,885.68896484375,-
217,1146.503662109375,80.3594741821289,7.71905517578125,885.0172119140625,-
218,1152.989501953125,80.73252868652344,7.64410400390625,884.3480834960938,-
219,1154.0465922148178,-,-,-,6.235128377204947e-06
220,1158.7528076171875,80.7404556274414,7.5985107421875,883.6781616210938,-
221,1164.257568359375,80.80687713623047,7.555633544921875,883.0046997070312,-
222,1170.316650390625,81.27854919433594,7.501190185546875,882.3262329101562,-
223,1177.0931396484375,81.9617691040039,7.42730712890625,881.6434936523438,-
224,1183.9324338228653,-,-,-,6.425851209382839e-06
225,1183.97509765625,82.21953582763672,7.350860595703125,880.9620971679688,-
226,1190.66357421875,82.00648498535156,7.280029296875,880.2891235351562,-
227,1197.103759765625,81.5091323852539,7.2186279296875,879.6318969726562,-
228,1203.1925048828125,80.84626007080078,7.179168701171875,878.9948120117188,-
229,1208.9755859375,80.63333129882812,7.13470458984375,878.3787841796875,-
230,1213.8182754309128,-,-,-,6.496334968540638e-06
231,1214.558837890625,80.56092834472656,7.088165283203125,877.7811889648438,-
232,1219.960205078125,80.27399444580078,7.045623779296875,877.1980590820312,-
233,1225.25927734375,79.5684585571289,7.023345947265625,876.6237182617188,-
234,1230.606689453125,79.3143539428711,7.000579833984375,876.0580444335938,-
235,1235.8431396484375,79.83811950683594,6.945648193359375,875.5029296875,-
236,1240.8338623046875,80.30879974365234,6.88232421875,874.9620361328125,-
237,1243.7041170389602,-,-,-,6.7253824370697605e-06
238,1245.5709228515625,80.38455200195312,6.83282470703125,874.4379272460938,-
239,1249.9857177734375,80.3968734741211,6.79156494140625,873.9293212890625,-
240,1254.1259765625,80.44415283203125,6.7518310546875,873.43310546875,-
241,1258.282958984375,80.42398071289062,6.71649169921875,872.9441528320312,-
242,1262.495849609375,80.23881530761719,6.684539794921875,872.4572143554688,-
243,1266.890625,80.03758239746094,6.651611328125,871.9686889648438,-
244,1271.567138671875,79.88288116455078,6.62353515625,871.4752197265625,-
245,1273.5899586470077,-,-,-,6.809666533471801e-06
246,1276.3326416015625,79.96627807617188,6.589019775390625,870.9751586914062,-
247,1281.225830078125,80.36080932617188,6.547149658203125,870.46875,-
248,1286.3150634765625,80.85115051269531,6.50115966796875,869.955810546875,-
249,1291.510498046875,81.05656433105469,6.44830322265625,869.4366455078125,-
250,1296.5880126953125,80.883056640625,6.399322509765625,868.912109375,-
251,1301.6453857421875,80.90510559082031,6.35443115234375,868.3823852539062,-
252,1303.4758002550552,-,-,-,6.798533280019822e-06
253,1306.7802734375,81.38523864746094,6.305023193359375,867.84912109375,-
254,1312.08203125,81.87993621826172,6.2530517578125,867.314208984375,-
255,1317.6920166015625,82.17848205566406,6.2049560546875,866.7799072265625,-
256,1323.1820068359375,82.45510864257812,6.156158447265625,866.2481079101562,-
257,1328.2591552734375,82.93331146240234,6.10443115234375,865.7186889648438,-
258,1332.8267822265625,83.24158477783203,6.058929443359375,865.1897583007812,-
259,1333.3616418631027,-,-,-,6.821621176450043e-06
260,1337.4112548828125,83.4048843383789,6.014129638671875,864.6572265625,-
261,1342.44677734375,83.66229248046875,5.975067138671875,864.1151123046875,-
262,1347.960693359375,84.00765228271484,5.927734375,863.559326171875,-
263,1353.473388671875,84.27445220947266,5.88250732421875,862.985107421875,-
264,1359.30224609375,84.34292602539062,5.8363037109375,862.3898315429688,-
265,1363.2474834711502,-,-,-,6.843480014565877e-06
266,1365.6304931640625,84.32818603515625,5.788909912109375,861.7750854492188,-
267,1372.1142578125,84.00675964355469,5.738128662109375,861.1453857421875,-
268,1378.771484375,83.13525390625,5.683746337890625,860.509033203125,-
269,1385.4271240234375,82.04535675048828,5.627044677734375,859.8743896484375,-
270,1391.3548583984375,81.71134948730469,5.572784423828125,859.249267578125,-
271,1393.1333250791977,-,-,-,6.851587675329739e-06
272,1396.6134033203125,81.75365447998047,5.52490234375,858.6388549804688,-
273,1401.6790771484375,81.28766632080078,5.484161376953125,858.0444946289062,-
274,1406.7880859375,81.2546157836914,5.438995361328125,857.4655151367188,-
275,1412.0325927734375,81.7009048461914,5.385284423828125,856.8989868164062,-
276,1417.2457275390625,81.8462142944336,5.336273193359375,856.3411865234375,-
