,alt,rh,temp,pressure,att_bsc
0,151.73187255859375,71.0,13.20001220703125,1008.9126586914062,-
1,151.96311950683594,70.09469604492188,13.56524658203125,1008.7760620117188,-
2,156.59967041015625,67.9499740600586,13.921051025390625,1008.1337280273438,-
3,161.91433715820312,65.87287139892578,14.27642822265625,1007.468017578125,-
4,167.3470458984375,63.743453979492195,14.592010498046875,1006.8533325195312,-
5,167.8138191492509,-,-,-,2.6688480659356584e-07
6,172.79647827148438,61.94064712524414,14.981475830078125,1006.34130859375,-
7,178.58351135253906,60.87864685058594,15.146331787109375,1005.5034790039062,-
8,185.15084838867188,60.35272216796875,15.17633056640625,1004.7149658203125,-
9,192.07518005371094,59.97563171386718,15.2947998046875,1004.0076293945312,-
10,197.69966075729837,-,-,-,2.573311493739153e-07
11,198.6056365966797,59.629371643066406,15.363128662109375,1003.2976684570312,-
12,204.47764587402344,59.40770721435547,15.38671875,1002.5936889648438,-
13,209.81207275390625,59.34893417358399,15.377532958984375,1001.8969116210938,-
14,214.9066925048828,59.25802230834961,15.369140625,1001.2055053710938,-
15,220.062744140625,59.05375289916992,15.352508544921875,1000.5152587890625,-
16,225.98330688476562,58.83599090576171,15.38226318359375,999.8240966796875,-
17,227.58550236534586,-,-,-,3.001008938416661e-07
18,232.2870635986328,58.644630432128906,15.396697998046875,999.1304931640625,-
19,238.54324340820312,58.296321868896484,15.426788330078125,998.4364013671875,-
20,244.78726196289062,57.98725891113281,15.472869873046875,997.7478637695312,-
21,251.17166137695312,57.85750961303711,15.528289794921875,997.0707397460938,-
22,257.12164306640625,57.72731018066406,15.54559326171875,996.4102172851562,-
23,257.47134397339335,-,-,-,3.247618711324093e-07
24,262.4615173339844,57.6893424987793,15.53448486328125,995.7686157226562,-
25,267.04730224609375,57.81489181518554,15.504241943359375,995.14599609375,-
26,271.34039306640625,58.03839492797852,15.474700927734375,994.5409545898438,-
27,276.0915222167969,58.249568939208984,15.43359375,993.9512939453125,-
28,281.4292907714844,58.25947189331055,15.41400146484375,993.3767700195312,-
29,286.6928405761719,57.80363464355469,15.419036865234375,992.8157958984375,-
30,287.35718558144083,-,-,-,3.249585209744074e-07
31,291.5886535644531,57.06069946289063,15.4381103515625,992.26708984375,-
32,296.1219177246094,56.51790237426758,15.44879150390625,991.72998046875,-
33,300.7203063964844,56.280570983886726,15.44256591796875,991.2041015625,-
34,305.35186767578125,56.185302734375,15.416473388671875,990.688232421875,-
35,309.6251525878906,56.11997985839844,15.383331298828125,990.1825561523438,-
36,313.2662658691406,56.051105499267585,15.361053466796875,989.6851806640625,-
37,316.8126220703125,56.02720642089844,15.338043212890625,989.1912231445312,-
38,317.2430271894883,-,-,-,2.438717454054453e-07
39,320.7937927246094,56.043083190917976,15.315826416015625,988.6948852539062,-
40,325.346923828125,56.138404846191406,15.278289794921875,988.1888427734375,-
41,330.10919189453125,56.257606506347656,15.23223876953125,987.6650390625,-
42,334.84967041015625,56.3301887512207,15.1888427734375,987.118408203125,-
43,339.8261413574219,56.24274826049805,15.15283203125,986.5464477539062,-
44,345.29559326171875,55.923873901367195,15.13421630859375,985.9507446289062,-
45,347.1288687975358,-,-,-,2.299060262129859e-07
46,351.1744689941406,55.62626266479492,15.114837646484375,985.3369750976562,-
47,357.08624267578125,55.50712585449219,15.076324462890625,984.714599609375,-
48,362.6019287109375,55.490478515625,15.0283203125,984.0924682617188,-
49,367.49029541015625,55.508304595947266,14.980621337890625,983.4755249023438,-
50,372.0540466308594,55.569656372070305,14.95062255859375,982.8649291992188,-
51,377.0147104055833,-,-,-,2.1304251562549262e-07
52,377.04888916015625,55.6847267150879,14.931671142578125,982.2592163085938,-
53,382.654296875,55.745330810546875,14.9022216796875,981.6541137695312,-
54,388.3551330566406,55.74028778076172,14.859832763671875,981.0479125976562,-
55,393.8705139160156,55.73146057128906,14.825347900390625,980.443115234375,-
56,399.1355895996094,55.60910415649414,14.7862548828125,979.8431396484375,-
57,404.0284729003906,55.321578979492195,14.7459716796875,979.2537231445312,-
58,406.9005520136308,-,-,-,1.8170362032527812e-07
59,408.4925842285156,55.08922576904297,14.712860107421875,978.677978515625,-
60,412.7102966308594,55.087581634521484,14.686981201171875,978.114501953125,-
61,416.9965515136719,55.29944610595703,14.66046142578125,977.5591430664062,-
62,421.7069396972656,55.560260772705085,14.621337890625,977.0049438476562,-
63,426.6014099121094,55.75833511352539,14.57916259765625,976.444091796875,-
64,431.3973388671875,55.896018981933594,14.541229248046875,975.8719482421875,-
65,436.3938903808594,56.060420989990234,14.508941650390625,975.2867431640625,-
66,436.78639362167826,-,-,-,1.5424872375070732e-07
67,441.7130126953125,56.1569938659668,14.4705810546875,974.6880493164062,-
68,447.30438232421875,56.187591552734375,14.42376708984375,974.0774536132812,-
69,452.9350891113281,56.3633155822754,14.37860107421875,973.457763671875,-
70,458.4669494628906,56.734371185302734,14.333404541015625,972.8323364257812,-
71,463.780029296875,56.84613418579102,14.29010009765625,972.202392578125,-
72,466.67223522972574,-,-,-,1.4085901087022936e-07
73,469.0870361328125,56.31329345703126,14.26123046875,971.566650390625,-
74,474.5726623535156,55.48292541503906,14.233612060546875,970.92529296875,-
75,480.5822448730469,54.55142974853516,14.21051025390625,970.27734375,-
76,486.9066162109375,53.88261413574219,14.18316650390625,969.6248168945312,-
77,493.2037048339844,53.73424530029297,14.146331787109375,968.9725952148438,-
78,496.5580768377732,-,-,-,1.5585830376331018e-07
79,499.0563049316406,53.879875183105476,14.095367431640625,968.32763671875,-
80,504.6026611328125,53.990226745605476,14.041168212890625,967.6970825195312,-
81,509.6260681152344,54.06949996948243,13.9854736328125,967.0869140625,-
82,514.0059204101562,54.307025909423835,13.9390869140625,966.497314453125,-
83,517.9839477539062,54.7373046875,13.904296875,965.9251708984375,-
84,522.224853515625,55.24633407592774,13.8695068359375,965.3654174804688,-
85,526.4439184458207,-,-,-,1.669539195225757e-07
86,526.9660034179688,55.77769470214844,13.82598876953125,964.8132934570312,-
87,532.0867309570312,56.249847412109375,13.77752685546875,964.2658081054688,-
88,537.3197021484375,56.61539459228516,13.72943115234375,963.724853515625,-
89,542.16845703125,56.8203010559082,13.686553955078125,963.1949462890625,-
90,546.5738525390625,56.96282196044922,13.648529052734375,962.681396484375,-
91,550.6549682617188,57.12546539306641,13.616455078125,962.1867065429688,-
92,554.4906005859375,57.20124816894532,13.586578369140625,961.7096557617188,-
93,556.3297600538682,-,-,-,1.807056670613552e-07
94,558.077392578125,57.15546035766602,13.55828857421875,961.2451782226562,-
95,561.6069946289062,57.06785202026368,13.531768798828125,960.7852172851562,-
96,565.0986938476562,56.91635131835938,13.50640869140625,960.3208618164062,-
97,568.9091796875,56.5804443359375,13.500823974609375,959.843505859375,-
98,573.2650756835938,56.026596069335945,13.49591064453125,959.3477783203125,-
99,577.919189453125,55.262901306152344,13.4951171875,958.8309936523438,-
100,582.6471557617188,54.60992431640626,13.49090576171875,958.2935180664062,-
101,586.2156016619157,-,-,-,1.894729016714092e-07
102,587.4520874023438,54.24192428588868,13.47747802734375,957.735595703125,-
103,592.3682250976562,54.06498336791993,13.44134521484375,957.1578979492188,-
104,597.4996948242188,53.761898040771484,13.417236328125,956.5625610351562,-
105,602.846435546875,53.576698303222656,13.395416259765625,955.9506225585938,-
106,608.3927001953125,53.56169891357422,13.347412109375,955.3234252929688,-
107,613.9606323242188,53.27849197387695,13.301300048828125,954.6826782226562,-
108,616.1014432699632,-,-,-,1.9207377709339683e-07
109,619.500244140625,52.6639747619629,13.269744873046875,954.0317993164062,-
110,625.257080078125,51.98409652709961,13.25360107421875,953.3771362304688,-
111,631.4064331054688,51.63846206665039,13.23162841796875,952.7260131835938,-
112,637.5509643554688,51.71080780029297,13.182891845703125,952.0856323242188,-
113,643.3447875976562,51.95915603637695,13.119384765625,951.4630737304688,-
114,645.9872848780107,-,-,-,1.8846635042290308e-07
115,648.7935180664062,52.13051986694336,13.066986083984375,950.86181640625,-
116,653.995361328125,52.295902252197266,13.02117919921875,950.281005859375,-
117,658.8429565429688,52.4569320678711,12.98394775390625,949.7172241210938,-
118,663.3200073242188,52.60951232910156,12.937713623046875,949.1631469726562,-
119,667.8075561523438,52.845741271972656,12.893310546875,948.6116333007812,-
120,672.52734375,53.097198486328125,12.8350830078125,948.056640625,-
121,675.8731264860581,-,-,-,1.8790649331224989e-07
122,677.3753662109375,53.1166877746582,12.790069580078125,947.4927368164062,-
123,682.167236328125,52.90154266357422,12.759002685546875,946.9168090820312,-
124,687.0687866210938,52.695526123046875,12.739837646484375,946.329833984375,-
125,692.3562622070312,52.69584655761719,12.704925537109375,945.7340698242188,-
126,698.1134033203125,52.872486114501946,12.65240478515625,945.1336059570312,-
127,703.8974609375,53.06301879882812,12.594268798828125,944.5315551757812,-
128,705.7589680941056,-,-,-,1.9110771089448124e-07
129,709.3331298828125,53.229789733886726,12.539703369140625,943.9318237304688,-
130,714.4765625,53.41461944580078,12.49371337890625,943.3363037109375,-
131,719.4637451171875,53.64363861083985,12.44635009765625,942.743408203125,-
132,724.4691162109375,53.86641693115235,12.3927001953125,942.151611328125,-
133,729.4530029296875,54.05699539184571,12.342010498046875,941.556640625,-
134,734.4332275390625,54.35463333129883,12.300537109375,940.9528198242188,-
135,735.6448097021531,-,-,-,1.872420920183919e-07
136,739.5751342773438,54.70042800903321,12.25482177734375,940.3342895507812,-
137,745.082275390625,55.0233039855957,12.2052001953125,939.6945190429688,-
138,750.8961181640625,55.354835510253906,12.1536865234375,939.0302734375,-
139,757.1181640625,55.79945373535157,12.100128173828125,938.3429565429688,-
140,763.7388916015625,56.21325302124024,12.042022705078125,937.6404418945312,-
141,765.5306513102006,-,-,-,1.920571842189188e-07
142,770.7449340820312,56.58718872070313,11.97454833984375,936.933837890625,-
143,778.0052490234375,56.93722152709961,11.90191650390625,936.2398681640625,-
144,785.042724609375,57.5972023010254,11.830047607421875,935.5748291015625,-
145,791.0824584960938,58.72442245483399,11.769287109375,934.9509887695312,-
146,795.4164929182481,-,-,-,1.896168863923315e-07
147,795.9877319335938,59.61173629760742,11.7254638671875,934.3734130859375,-
148,800.0645141601562,59.8193588256836,11.693450927734375,933.8379516601562,-
149,803.6793212890625,59.97510528564454,11.670501708984375,933.33349609375,-
150,807.36376953125,60.690330505371094,11.646575927734375,932.8434448242188,-
151,811.3346557617188,61.76491928100586,11.60809326171875,932.3522338867188,-
152,815.62158203125,62.9697494506836,11.561004638671875,931.8472290039062,-
153,820.2448120117188,64.2629623413086,11.510467529296875,931.321044921875,-
154,825.3023345262956,-,-,-,1.9129687507784714e-07
155,825.33251953125,64.8492431640625,11.4580078125,930.7722778320312,-
156,830.8897705078125,64.11829376220703,11.430328369140625,930.2032470703125,-
157,836.9468383789062,62.911693572998054,11.415130615234375,929.6192016601562,-
158,843.2373046875,62.0241928100586,11.3843994140625,929.0287475585938,-
159,849.21728515625,61.353004455566406,11.360870361328125,928.4402465820312,-
160,854.5064086914062,61.00925064086914,11.32965087890625,927.85986328125,-
161,855.188176134343,-,-,-,2.4865206528684556e-07
162,859.106689453125,60.935306549072266,11.294281005859375,927.2899169921875,-
163,863.2842407226562,61.08588790893555,11.26080322265625,926.7304077148438,-
164,867.6987915039062,61.438785552978516,11.223541259765625,926.1771240234375,-
165,872.8042602539062,61.7275505065918,11.181121826171875,925.6253051757812,-
166,878.629638671875,61.79151153564453,11.135040283203125,925.0723876953125,-
167,884.811279296875,61.729087829589844,11.0860595703125,924.5162963867188,-
168,885.0740177423905,-,-,-,2.929136341584746e-07
169,890.6237182617188,61.69067001342774,11.036041259765625,923.9580688476562,-
170,895.7550048828125,61.71414184570313,10.991058349609375,923.3991088867188,-
171,900.6090087890625,61.80096435546874,10.9493408203125,922.8399047851562,-
172,905.9047241210938,62.00828552246094,10.903961181640625,922.282470703125,-
173,911.4607543945312,62.2039794921875,10.851531982421875,921.7286376953125,-
174,914.959859350438,-,-,-,3.0024974211799664e-07
175,916.539794921875,62.22556304931641,10.79913330078125,921.1803588867188,-
176,921.14306640625,62.20905303955079,10.754241943359375,920.6380615234375,-
177,925.84619140625,62.42899703979492,10.712677001953125,920.10302734375,-
178,930.7384643554688,62.901546478271484,10.669464111328125,919.578125,-
179,935.49755859375,63.370487213134766,10.620391845703125,919.06640625,-
180,939.8873291015625,63.61597442626953,10.5712890625,918.5697021484375,-
181,943.8811645507812,63.66481399536133,10.528900146484375,918.0892944335938,-
182,944.8457009584855,-,-,-,2.904331984502699e-07
183,947.7437133789062,63.63109588623047,10.49505615234375,917.623046875,-
184,951.75927734375,63.688148498535156,10.463134765625,917.1657104492188,-
185,956.0208129882812,63.91937255859376,10.428253173828125,916.7115478515625,-
186,960.28076171875,64.1567153930664,10.388092041015625,916.2547607421875,-
187,964.39599609375,64.28953552246094,10.345916748046875,915.790771484375,-
188,968.5266723632812,64.43285369873047,10.300872802734375,915.3164672851562,-
189,972.6817016601562,64.62509155273438,10.258392333984375,914.8275756835938,-
190,974.731542566533,-,-,-,2.944952389496726e-07
191,976.9196166992188,64.87133026123047,10.218292236328125,914.3231201171875,-
192,981.3287963867188,65.01616668701172,10.189239501953125,913.8045654296875,-
193,985.9864501953125,64.92388153076172,10.17010498046875,913.2743530273438,-
194,990.9017944335938,64.72894287109375,10.151702880859375,912.7359008789062,-
195,996.1173095703125,64.54843139648438,10.1217041015625,912.1923828125,-
196,1001.51611328125,64.3304443359375,10.091033935546875,911.6455688476562,-
197,1004.6173841745805,-,-,-,3.022841336569797e-07
198,1007.08935546875,63.904552459716804,10.067962646484375,911.0964965820312,-
199,1012.5300903320312,63.0135841369629,10.049652099609375,910.54541015625,-
200,1017.8517456054688,61.7170753479004,10.04473876953125,909.993896484375,-
201,1022.93359375,60.703956604003906,10.045318603515625,909.4423217773438,-
202,1027.73095703125,60.52219390869141,10.034881591796875,908.891357421875,-
203,1032.3072509765625,60.95769882202149,10.026275634765625,908.339599609375,-
204,1034.5032257826279,-,-,-,3.043059923067998e-07
205,1037.0660400390625,61.566417694091804,10.023040771484375,907.7841796875,-
206,1042.427734375,62.0811538696289,10.01031494140625,907.2255859375,-
207,1048.3287353515625,62.21579742431641,9.976165771484375,906.6660766601562,-
208,1054.1087646484375,62.0957145690918,9.93341064453125,906.1080932617188,-
209,1059.1605224609375,61.981773376464844,9.889617919921875,905.5549926757812,-
210,1063.7047119140625,62.005924224853516,9.847259521484375,905.0068969726562,-
211,1064.3890673906753,-,-,-,3.0356386649565006e-07
212,1068.1546630859375,62.249351501464844,9.804473876953125,904.4614868164062,-
213,1072.7568359375,62.63158798217774,9.7572021484375,903.914794921875,-
214,1077.5096435546875,62.895210266113274,9.714996337890625,903.365234375,-
215,1082.7158203125,63.083778381347656,9.674072265625,902.8124389648438,-
216,1088.2781982421875,63.23664093017578,9.624267578125,902.2582397460938,-
217,1093.99609375,63.264286041259766,9.57049560546875,901.7063598632812,-
218,1094.2749089987228,-,-,-,3.22607948146495e-07
219,1099.630615234375,63.20842361450195,9.51708984375,901.1614990234375,-
220,1104.9322509765625,63.15757369995117,9.464874267578125,900.6258544921875,-
221,1109.3662109375,63.13244628906251,9.420684814453125,900.100830078125,-
222,1113.1463623046875,63.260711669921875,9.39019775390625,899.5847778320312,-
223,1117.076171875,63.599761962890625,9.363555908203125,899.0728149414062,-
224,1121.72802734375,63.98442459106446,9.339569091796875,898.5595092773438,-
225,1124.1607506067703,-,-,-,3.3855355463413206e-07
226,1126.9437255859375,64.23881530761719,9.3045654296875,898.0407104492188,-
227,1132.2425537109375,64.28179931640625,9.262054443359375,897.51220703125,-
228,1137.47021484375,64.3510971069336,9.22357177734375,896.9720458984375,-
229,1142.6112060546875,64.67056274414062,9.191436767578125,896.4194946289062,-
230,1147.5540771484375,65.07205200195312,9.15533447265625,895.8526000976562,-
231,1152.58251953125,65.37810516357422,9.1248779296875,895.2715454101562,-
232,1154.0465922148178,-,-,-,3.6801757443382055e-07
233,1158.244384765625,65.7516860961914,9.093017578125,894.6770629882812,-
234,1164.4273681640625,66.1455307006836,9.04888916015625,894.0728149414062,-
235,1170.641357421875,66.37287139892578,8.992889404296875,893.4639282226562,-
236,1176.5501708984375,66.38410949707031,8.946258544921875,892.8555908203125,-
237,1182.0208740234375,66.2262954711914,8.913055419921875,892.2533569335938,-
238,1183.9324338228653,-,-,-,3.9548755514349726e-07
239,1187.00341796875,66.11873626708984,8.878204345703125,891.6592407226562,-
240,1191.82080078125,66.25407409667969,8.84381103515625,891.0736083984375,-
241,1196.6988525390625,66.58753204345703,8.80950927734375,890.4952392578125,-
242,1201.7049560546875,67.1282958984375,8.7734375,889.9251098632812,-
243,1206.7608642578125,67.8477554321289,8.727996826171875,889.3627319335938,-
244,1211.8524169921875,68.1948013305664,8.680145263671875,888.8077392578125,-
245,1213.8182754309128,-,-,-,3.947332360912738e-07
246,1216.7972412109375,68.24063110351562,8.6395263671875,888.25830078125,-
247,1221.475830078125,68.32755279541016,8.601837158203125,887.7117309570312,-
248,1226.156005859375,68.57354736328125,8.56243896484375,887.1678466796875,-
249,1231.1339111328125,68.83052062988281,8.51263427734375,886.6275634765625,-
250,1236.36474609375,68.94768524169922,8.46240234375,886.09423828125,-
251,1241.636962890625,69.03272247314453,8.41552734375,885.5704956054688,-
252,1243.7041170389602,-,-,-,4.317564705337889e-07
253,1246.6295166015625,69.27979278564453,8.373382568359375,885.0570678710938,-
254,1251.194580078125,69.70075988769531,8.332366943359375,884.5529174804688,-
255,1255.283203125,70.18975830078125,8.291015625,884.0559692382812,-
256,1259.1220703125,70.63639068603516,8.248199462890625,883.5632934570312,-
257,1263.1190185546875,71.04895782470703,8.207733154296875,883.071044921875,-
258,1267.5582275390625,71.43373107910156,8.171722412109375,882.574462890625,-
259,1272.3741455078125,71.46823120117188,8.137115478515625,882.0687866210938,-
260,1273.5899586470077,-,-,-,4.344347919867014e-07
261,1277.4415283203125,70.82776641845703,8.104705810546875,881.5503540039062,-
262,1282.5345458984375,70.01525115966797,8.08734130859375,881.0166015625,-
263,1287.4678955078125,69.66722869873047,8.063751220703125,880.4661254882812,-
264,1292.4066162109375,69.85697174072266,8.022247314453125,879.8960571289062,-
265,1297.5804443359375,70.26787567138672,7.98089599609375,879.303955078125,-
266,1303.3681640625,70.73870086669922,7.9267578125,878.6895141601562,-
267,1303.4758002550552,-,-,-,4.3194472681650597e-07
268,1309.7529296875,71.0689468383789,7.86236572265625,878.053955078125,-
269,1316.2801513671875,71.21179962158203,7.793975830078125,877.4002075195312,-
270,1322.695068359375,71.3486099243164,7.731689453125,876.7294311523438,-
271,1329.140869140625,71.77340698242188,7.663818359375,876.0409545898438,-
272,1333.3616418631027,-,-,-,4.1930871297382414e-07
273,1335.79296875,72.34210968017578,7.594268798828125,875.33447265625,-
