,alt,rh,temp,pressure,att_bsc
0,151.73187255859375,89.0,-0.199981689453125,1002.071044921875,-
1,156.0646514892578,90.88935852050781,-0.16522216796875,1001.7474975585938,-
2,160.7437744140625,90.19631958007812,-0.168792724609375,1001.1192626953125,-
3,166.30332946777344,89.72510528564453,-0.208038330078125,1000.3209228515625,-
4,167.8138191492509,-,-,-,5.390529349360399e-07
5,172.217041015625,89.19549560546875,-0.24749755859375,999.6091918945312,-
6,177.8800506591797,88.45823669433594,-0.26605224609375,998.93505859375,-
7,183.07528686523438,87.5518569946289,-0.292266845703125,998.4164428710938,-
8,188.2891082763672,86.98092651367188,-0.3304443359375,997.80615234375,-
9,193.6141815185547,86.7365493774414,-0.352508544921875,997.1956787109375,-
10,197.69966075729837,-,-,-,3.37654864956453e-07
11,198.82200622558594,86.65591430664062,-0.385986328125,996.5827026367188,-
12,203.8318328857422,86.72608184814453,-0.43536376953125,995.9642333984375,-
13,209.0748748779297,86.74779510498047,-0.4697265625,995.3381958007812,-
14,214.57139587402344,86.80526733398438,-0.498138427734375,994.7057495117188,-
15,220.2027587890625,87.0047836303711,-0.5538330078125,994.0711669921875,-
16,225.72552490234375,86.90892028808594,-0.608001708984375,993.4385986328125,-
17,227.58550236534586,-,-,-,3.8846841038349553e-07
18,230.757568359375,86.33226776123047,-0.62982177734375,992.8086547851562,-
19,235.1785125732422,85.19048309326172,-0.62530517578125,992.1817626953125,-
20,239.635498046875,83.57038879394531,-0.5457763671875,991.5558471679688,-
21,244.1689453125,82.5121078491211,-0.4937744140625,990.9263305664062,-
22,248.66281127929688,82.3026351928711,-0.494659423828125,990.2882080078125,-
23,253.5678253173828,82.54322814941406,-0.523956298828125,989.64013671875,-
24,257.47134397339335,-,-,-,4.834788125047629e-07
25,258.5743408203125,82.96768188476562,-0.575286865234375,988.98193359375,-
26,263.51007080078125,83.34742736816406,-0.64031982421875,988.3132934570312,-
27,268.33514404296875,83.52936553955078,-0.69854736328125,987.6341552734375,-
28,273.3523864746094,83.56796264648438,-0.733489990234375,986.9473266601562,-
29,279.2871398925781,83.6231460571289,-0.751983642578125,986.2562866210938,-
30,285.5260925292969,83.66500854492188,-0.801422119140625,985.5655517578125,-
31,287.35718558144083,-,-,-,4.624091127271772e-07
32,291.28302001953125,83.67134857177734,-0.848297119140625,984.88037109375,-
33,296.2351379394531,83.73204040527344,-0.8682861328125,984.2052001953125,-
34,300.7067565917969,83.77454376220703,-0.90753173828125,983.5439453125,-
35,305.1342468261719,83.88267517089844,-0.935089111328125,982.9002685546875,-
36,309.7457580566406,84.23556518554688,-0.975677490234375,982.27490234375,-
37,314.263427734375,84.52477264404297,-1.046173095703125,981.6685180664062,-
38,317.2430271894883,-,-,-,4.1355572053287324e-07
39,318.6423645019531,84.50975799560547,-1.0909423828125,981.079833984375,-
40,323.0143737792969,84.72201538085938,-1.119659423828125,980.5057983398438,-
41,327.4698791503906,85.27964782714844,-1.156005859375,979.9380493164062,-
42,331.9873046875,85.60163116455078,-1.20953369140625,979.36962890625,-
43,336.44927978515625,85.3929214477539,-1.237701416015625,978.7933959960938,-
44,341.2587890625,85.26180267333984,-1.23760986328125,978.205322265625,-
45,346.56463623046875,85.55427551269531,-1.27239990234375,977.603759765625,-
46,347.1288687975358,-,-,-,3.4387902258283377e-07
47,352.0616149902344,85.7686767578125,-1.33892822265625,976.9927368164062,-
48,357.3503112792969,85.74383544921875,-1.36920166015625,976.3792114257812,-
49,362.6358947753906,86.11174774169922,-1.407257080078125,975.7720947265625,-
50,368.0973205566406,86.72596740722656,-1.49560546875,975.1808471679688,-
51,373.3258056640625,86.62357330322266,-1.535797119140625,974.6111450195312,-
52,377.0147104055833,-,-,-,3.11350284508108e-07
53,377.5960693359375,86.21895599365234,-1.530609130859375,974.0650634765625,-
54,380.6368713378906,86.46707916259766,-1.577880859375,973.541015625,-
55,383.10809326171875,87.02006530761719,-1.621368408203125,973.0311889648438,-
56,386.1991882324219,87.40155792236328,-1.67059326171875,972.5255126953125,-
57,390.7734680175781,87.57392883300781,-1.7044677734375,972.015625,-
58,396.4563903808594,87.64506530761719,-1.73809814453125,971.5,-
59,401.6651611328125,87.7032699584961,-1.790863037109375,970.9783325195312,-
60,405.32611083984375,87.71961975097656,-1.837860107421875,970.4530639648438,-
61,406.9005520136308,-,-,-,2.7646764462385815e-07
62,408.3643798828125,87.86467742919922,-1.863311767578125,969.9265747070312,-
63,412.0483093261719,88.24486541748047,-1.895172119140625,969.3997192382812,-
64,416.9700012207031,88.58688354492188,-1.943939208984375,968.8734130859375,-
65,422.5438537597656,88.67761993408203,-1.991607666015625,968.3495483398438,-
66,427.6188659667969,88.724853515625,-2.030120849609375,967.8311767578125,-
67,431.6877746582031,88.9371566772461,-2.07098388671875,967.3189697265625,-
68,435.2855529785156,89.21621704101562,-2.109832763671875,966.8118286132812,-
69,436.78639362167826,-,-,-,2.5029904943426125e-07
70,439.0728454589844,89.43025970458984,-2.143218994140625,966.3049926757812,-
71,443.0460510253906,89.62516784667969,-2.1734619140625,965.7926025390625,-
72,446.96728515625,89.82569122314453,-2.21240234375,965.2703247070312,-
73,450.897216796875,89.97735595703125,-2.2562255859375,964.7334594726562,-
74,455.09765625,90.03607940673828,-2.294891357421875,964.1784057617188,-
75,459.9898986816406,90.12616729736328,-2.329132080078125,963.6040649414062,-
76,465.7127990722656,90.41612243652344,-2.3736572265625,963.0155639648438,-
77,466.67223522972574,-,-,-,2.356985235167386e-07
78,471.77508544921875,90.84451293945312,-2.426971435546875,962.4195556640625,-
79,477.42327880859375,91.03985595703125,-2.485076904296875,961.8239135742188,-
80,482.43780517578125,90.80962371826172,-2.535614013671875,961.23779296875,-
81,486.75738525390625,90.51386260986328,-2.56787109375,960.6668701171875,-
82,490.7254943847656,90.67208099365234,-2.592254638671875,960.1144409179688,-
83,495.00299072265625,91.19274139404297,-2.6207275390625,959.5802612304688,-
84,496.5580768377732,-,-,-,2.563979089146457e-07
85,499.63116455078125,91.63987731933594,-2.66851806640625,959.0618286132812,-
86,504.21295166015625,91.8122787475586,-2.71893310546875,958.5521240234375,-
87,508.6300048828125,91.99998474121094,-2.762237548828125,958.041748046875,-
88,513.3272094726562,92.4565200805664,-2.798614501953125,957.5215454101562,-
89,518.4077758789062,92.9190673828125,-2.841156005859375,956.9862060546875,-
90,523.6338500976562,93.04681396484375,-2.88421630859375,956.4348754882812,-
91,526.4439184458207,-,-,-,2.894018456343378e-07
92,528.4608154296875,92.98219299316406,-2.9256591796875,955.8715209960938,-
93,533.0054321289062,93.06623077392578,-2.973541259765625,955.3049926757812,-
94,537.3300170898438,93.20646667480469,-3.0223388671875,954.7426147460938,-
95,541.5918579101562,93.24929809570312,-3.066650390625,954.1900634765625,-
96,545.6278686523438,93.4301986694336,-3.108489990234375,953.6481323242188,-
97,549.4970703125,93.76648712158203,-3.145111083984375,953.1138916015625,-
98,553.3859252929688,94.19326782226562,-3.1827392578125,952.5828857421875,-
99,556.3297600538682,-,-,-,3.945568574807708e-07
100,557.7108764648438,94.58831024169922,-3.224761962890625,952.05224609375,-
101,562.5479125976562,94.8460922241211,-3.27154541015625,951.51708984375,-
102,567.5167846679688,94.97309112548828,-3.3212890625,950.9745483398438,-
103,572.1991577148438,95.00926971435547,-3.364532470703125,950.4226684570312,-
104,576.5780639648438,95.1807632446289,-3.401031494140625,949.8588256835938,-
105,580.912109375,95.45941925048828,-3.44000244140625,949.283203125,-
106,585.5877075195312,95.7480239868164,-3.479400634765625,948.6966552734375,-
107,586.2156016619157,-,-,-,9.123060766784068e-07
108,591.0222778320312,96.11618041992188,-3.52044677734375,948.1050415039062,-
109,597.1068115234375,96.48217773437501,-3.562896728515625,947.5194091796875,-
110,603.1172485351562,96.54258728027344,-3.6103515625,946.9506225585938,-
111,608.3801879882812,96.29161071777344,-3.65618896484375,946.4088745117188,-
112,612.3970336914062,95.97417449951172,-3.69744873046875,945.896240234375,-
113,615.3931884765625,95.7535171508789,-3.72698974609375,945.40869140625,-
114,616.1014432699632,-,-,-,1.5094401975367765e-05
115,618.4815673828125,96.34672546386719,-3.751953125,944.93701171875,-
116,622.197021484375,97.58702850341797,-3.781280517578125,944.4706420898438,-
117,626.3031005859375,98.4693832397461,-3.82159423828125,944.0037231445312,-
118,630.52685546875,98.66979217529297,-3.868499755859375,943.534912109375,-
119,634.4678955078125,98.50165557861328,-3.9134521484375,943.0648193359375,-
120,638.1336059570312,98.44769287109375,-3.95086669921875,942.5960083007812,-
121,641.7472534179688,98.67599487304688,-3.98828125,942.128662109375,-
122,645.5126342773438,98.89389038085938,-4.03485107421875,941.6587524414062,-
123,645.9872848780107,-,-,-,3.222637948729264e-05
124,649.837158203125,99.06795501708984,-4.08795166015625,941.1861572265625,-
125,654.5761108398438,99.33235931396484,-4.12060546875,940.7116088867188,-
126,659.5360107421875,99.59922790527344,-4.15496826171875,940.238525390625,-
127,664.2645263671875,99.74717712402345,-4.205291748046875,939.773193359375,-
128,668.1852416992188,99.56088256835938,-4.255218505859375,939.3220825195312,-
129,671.67236328125,99.32592010498047,-4.29248046875,938.8897094726562,-
130,675.171875,99.36309051513672,-4.32080078125,938.4727783203125,-
131,675.8731264860581,-,-,-,3.439725192952384e-05
132,678.4329223632812,99.60570526123047,-4.340850830078125,938.0646362304688,-
133,681.3157958984375,100.0,-4.35870361328125,937.6571655273438,-
