,alt,rh,temp,pressure,att_bsc
0,151.73187255859375,48.0,6.20001220703125,1011.3853759765625,-
1,153.31651306152344,47.59062576293945,6.05487060546875,1011.1484985351562,-
2,158.06654357910156,46.620365142822266,6.172027587890625,1010.57421875,-
3,163.60203552246094,45.2280158996582,6.40936279296875,1009.6163940429688,-
4,167.8138191492509,-,-,-,4.821318207468631e-07
5,169.086669921875,43.22023391723633,6.800384521484375,1009.0586547851562,-
6,174.2604217529297,41.529056549072266,7.26513671875,1008.4176025390625,-
7,179.3455047607422,40.63877868652344,7.610687255859375,1007.76220703125,-
8,184.3321075439453,40.071250915527344,7.80908203125,1007.1524658203125,-
9,189.21563720703125,39.5289421081543,7.917510986328125,1006.5219116210938,-
10,194.20286560058594,39.13368225097656,7.970245361328125,1005.8864135742188,-
11,197.69966075729837,-,-,-,3.4860146103008337e-07
12,199.34689331054688,38.932125091552734,8.007110595703125,1005.2420043945312,-
13,204.6623992919922,38.88419723510742,8.0018310546875,1004.5858154296875,-
14,210.383056640625,38.941802978515625,7.97613525390625,1003.916015625,-
15,216.40147399902344,38.996803283691406,7.955474853515625,1003.2366943359375,-
16,222.32278442382812,38.997764587402344,7.91546630859375,1002.5563354492188,-
17,227.58550236534586,-,-,-,3.640109107228201e-07
18,227.963134765625,38.957923889160156,7.88922119140625,1001.8841552734375,-
19,233.177001953125,38.91813659667969,7.85736083984375,1001.22607421875,-
20,237.65658569335938,38.896846771240234,7.809051513671875,1000.583740234375,-
21,241.7333984375,38.92620086669922,7.76898193359375,999.95458984375,-
22,245.9482421875,38.97473907470703,7.7366943359375,999.3318481445312,-
23,250.81044006347656,39.019622802734375,7.6942138671875,998.70751953125,-
24,256.1159973144531,39.028167724609375,7.639556884765625,998.07666015625,-
25,257.47134397339335,-,-,-,4.463479850487499e-07
26,261.6618957519531,39.021732330322266,7.596710205078125,997.4368896484375,-
27,267.6055603027344,39.059898376464844,7.55975341796875,996.7916870117188,-
28,273.8836364746094,39.11466979980469,7.508575439453125,996.1495361328125,-
29,279.71014404296875,39.087493896484375,7.45318603515625,995.5197143554688,-
30,284.65850830078125,39.04502487182617,7.411590576171875,994.9107055664062,-
31,287.35718558144083,-,-,-,3.87721774672199e-07
32,288.89312744140625,39.063018798828125,7.376800537109375,994.3245849609375,-
33,292.825927734375,39.096595764160156,7.34136962890625,993.757568359375,-
34,296.80120849609375,39.13922882080078,7.308502197265625,993.2001342773438,-
35,301.1551818847656,39.22797775268555,7.2750244140625,992.6419067382812,-
36,305.8219299316406,39.3170280456543,7.23626708984375,992.0748291015625,-
37,310.5524597167969,39.303741455078125,7.198516845703125,991.4957275390625,-
38,315.4671325683594,39.2774543762207,7.173248291015625,990.9029541015625,-
39,317.2430271894883,-,-,-,3.4351053894453907e-07
40,320.81231689453125,39.34347915649414,7.141448974609375,990.2987670898438,-
41,326.14532470703125,39.3885498046875,7.09710693359375,989.6882934570312,-
42,331.1870422363281,39.35102844238281,7.055999755859375,989.0744018554688,-
43,335.9632568359375,39.34113311767578,7.02459716796875,988.4622802734375,-
44,340.8011169433594,39.37257766723633,6.996063232421875,987.8540649414062,-
45,346.004638671875,39.37386703491211,6.9615478515625,987.2492065429688,-
46,347.1288687975358,-,-,-,2.800549845803748e-07
47,351.56689453125,39.39201736450195,6.931365966796875,986.6470947265625,-
48,357.0606994628906,39.445884704589844,6.892791748046875,986.046875,-
49,362.0735168457031,39.498870849609375,6.84698486328125,985.4479370117188,-
50,366.6007080078125,39.60524368286133,6.805511474609375,984.8485107421875,-
51,371.083251953125,39.73830795288086,6.770660400390625,984.2470092773438,-
52,375.7691955566406,39.863494873046875,6.73187255859375,983.6421508789062,-
53,377.0147104055833,-,-,-,2.40897773466468e-07
54,380.5142517089844,39.96475601196289,6.682403564453125,983.0330200195312,-
55,385.2218933105469,40.01103973388672,6.63934326171875,982.4203491210938,-
56,390.2879943847656,40.12590026855469,6.602142333984375,981.8062744140625,-
57,395.7593688964844,40.29341506958008,6.5595703125,981.195068359375,-
58,401.11761474609375,40.35698699951172,6.516845703125,980.5882568359375,-
59,406.1783447265625,40.34649658203125,6.480316162109375,979.9876708984375,-
60,406.9005520136308,-,-,-,1.970465329354006e-07
61,410.9888000488281,40.40864181518555,6.44793701171875,979.3915405273438,-
62,415.64715576171875,40.50611114501953,6.420745849609375,978.7974243164062,-
63,420.5087585449219,40.597373962402344,6.385986328125,978.2040405273438,-
64,425.60357666015625,40.65631866455078,6.341766357421875,977.6103515625,-
65,430.5999450683594,40.675537109375,6.29571533203125,977.017822265625,-
66,435.3890075683594,40.73714065551758,6.25677490234375,976.4288940429688,-
67,436.78639362167826,-,-,-,1.666642734626285e-07
68,440.1003112792969,40.83123779296875,6.225006103515625,975.843017578125,-
69,444.9117126464844,40.85013198852539,6.197967529296875,975.2593383789062,-
70,449.9058837890625,40.74917221069336,6.173431396484375,974.6781005859375,-
71,455.10919189453125,40.583919525146484,6.157501220703125,974.0996704101562,-
72,460.4010009765625,40.4928092956543,6.13232421875,973.52392578125,-
73,465.4139404296875,40.48687744140625,6.102325439453125,972.9512329101562,-
74,466.67223522972574,-,-,-,1.6010057384501497e-07
75,470.0513610839844,40.469329833984375,6.078216552734375,972.3782348632812,-
76,474.587646484375,40.4731559753418,6.051177978515625,971.803466796875,-
77,479.17718505859375,40.50687026977539,6.0133056640625,971.225830078125,-
78,483.9968566894531,40.4798698425293,5.97515869140625,970.6471557617188,-
79,488.97271728515625,40.37771987915039,5.95068359375,970.069091796875,-
80,493.887451171875,40.27085876464844,5.93499755859375,969.4924926757812,-
81,496.5580768377732,-,-,-,1.6890597817385737e-07
82,498.58489990234375,40.18431854248047,5.912200927734375,968.9170532226562,-
83,503.2020263671875,40.10821533203125,5.884033203125,968.339111328125,-
84,507.7730712890625,40.064762115478516,5.871917724609375,967.7512817382812,-
85,512.441162109375,40.05843734741211,5.859405517578125,967.1472778320312,-
86,517.50341796875,40.073524475097656,5.835418701171875,966.5223388671875,-
87,523.2178955078125,40.08654022216797,5.814117431640625,965.8763427734375,-
88,526.4439184458207,-,-,-,1.8446337194064486e-07
89,529.5133056640625,40.07819366455078,5.792388916015625,965.21630859375,-
90,535.9301147460938,40.01221466064453,5.759033203125,964.5538330078125,-
91,541.7491455078125,39.89350128173828,5.72613525390625,963.9006958007812,-
92,546.8847045898438,39.781673431396484,5.7022705078125,963.2665405273438,-
93,551.6831665039062,39.75210189819336,5.676849365234375,962.6546630859375,-
94,556.3297600538682,-,-,-,2.1039667198938125e-07
95,556.3609619140625,39.74999237060547,5.65789794921875,962.0634155273438,-
96,560.9728393554688,39.71639633178711,5.637359619140625,961.4883422851562,-
97,565.6951293945312,39.67254638671875,5.60784912109375,960.9215698242188,-
98,570.603271484375,39.64053726196289,5.580322265625,960.3555297851562,-
99,575.7503051757812,39.58306884765625,5.571685791015625,959.78466796875,-
100,580.9622802734375,39.569007873535156,5.556243896484375,959.204833984375,-
101,586.1129150390625,39.633296966552734,5.538665771484375,958.6166381835938,-
102,586.2156016619157,-,-,-,2.3022015184938267e-07
103,591.0240478515625,39.790279388427734,5.512298583984375,958.0216064453125,-
104,596.0025634765625,40.11228942871094,5.479217529296875,957.4198608398438,-
105,601.251220703125,40.46520233154297,5.43804931640625,956.8131103515625,-
106,606.6377563476562,40.652610778808594,5.3936767578125,956.2008666992188,-
107,612.12939453125,40.642417907714844,5.35369873046875,955.5841064453125,-
108,616.1014432699632,-,-,-,2.4407374358419594e-07
109,617.77783203125,40.59976577758789,5.31451416015625,954.9647216796875,-
110,623.2605590820312,40.630313873291016,5.268951416015625,954.3446655273438,-
111,628.3570556640625,40.70942687988281,5.22369384765625,953.7256469726562,-
112,633.2907104492188,40.836097717285156,5.1817626953125,953.1083374023438,-
113,638.0852661132812,41.05229187011719,5.1385498046875,952.4927368164062,-
114,642.9007568359375,41.27014923095703,5.097900390625,951.8805541992188,-
115,645.9872848780107,-,-,-,2.6290739713573353e-07
116,647.8969116210938,41.401519775390625,5.055816650390625,951.2703857421875,-
117,653.3021850585938,41.48597717285156,5.006805419921875,950.6596069335938,-
118,659.0213012695312,41.57244873046875,4.9573974609375,950.0481567382812,-
119,664.78369140625,41.723854064941406,4.9071044921875,949.4354858398438,-
120,670.246337890625,41.88808059692383,4.858978271484375,948.8230590820312,-
121,675.3071899414062,42.00692367553711,4.810638427734375,948.2150268554688,-
122,675.8731264860581,-,-,-,2.7735435238376346e-07
123,680.1107788085938,42.107872009277344,4.761810302734375,947.6155395507812,-
124,684.9093627929688,42.235389709472656,4.717498779296875,947.0257568359375,-
125,689.731689453125,42.38798522949219,4.675262451171875,946.44677734375,-
126,694.5968627929688,42.5186767578125,4.6290283203125,945.8772583007812,-
127,699.6104736328125,42.693450927734375,4.585662841796875,945.3140258789062,-
128,704.7223510742188,42.90507888793945,4.540985107421875,944.7542724609375,-
129,705.7589680941056,-,-,-,2.9381935243290546e-07
130,709.5612182617188,42.9984245300293,4.497772216796875,944.1945190429688,-
131,714.2295532226562,43.13404083251953,4.452545166015625,943.6332397460938,-
132,719.0457763671875,43.373802185058594,4.402313232421875,943.0703735351562,-
133,723.8671264648438,43.54288864135742,4.353485107421875,942.507080078125,-
134,728.63818359375,43.613128662109375,4.310302734375,941.9431762695312,-
135,733.4579467773438,43.72442626953125,4.27142333984375,941.3760986328125,-
136,735.6448097021531,-,-,-,3.000634326170959e-07
137,738.3211669921875,43.91270065307617,4.225250244140625,940.8050537109375,-
138,743.1068725585938,44.1209602355957,4.173675537109375,940.2294921875,-
139,747.886962890625,44.283447265625,4.129364013671875,939.6472778320312,-
140,752.7072143554688,44.40257263183594,4.087860107421875,939.0576782226562,-
141,757.8898315429688,44.5671501159668,4.043609619140625,938.4613037109375,-
142,763.63720703125,44.80533218383789,3.991485595703125,937.85791015625,-
143,765.5306513102006,-,-,-,3.050652655988632e-07
144,769.6586303710938,44.91923522949219,3.9359130859375,937.2518920898438,-
145,775.3511962890625,44.89691925048828,3.882110595703125,936.6473388671875,-
146,780.5974731445312,44.91246795654297,3.833160400390625,936.0463256835938,-
147,785.4037475585938,45.01803207397461,3.786041259765625,935.4498901367188,-
148,789.9977416992188,45.16094207763672,3.743255615234375,934.8563842773438,-
149,794.8284912109375,45.39360046386719,3.7020263671875,934.2633056640625,-
150,795.4164929182481,-,-,-,3.169022490960068e-07
151,800.043212890625,45.65353775024414,3.653594970703125,933.6673583984375,-
152,805.3851928710938,45.75819778442383,3.60479736328125,933.0684814453125,-
153,810.80712890625,45.82098388671875,3.553985595703125,932.4689331054688,-
154,816.37451171875,45.949546813964844,3.49505615234375,931.8698120117188,-
155,821.8729248046875,46.03877258300781,3.435028076171875,931.2726440429688,-
156,825.3023345262956,-,-,-,3.472263697140681e-07
157,826.7000122070312,46.013710021972656,3.388671875,930.6793212890625,-
158,831.1160278320312,45.96665573120117,3.354248046875,930.0870971679688,-
159,835.8739624023438,45.970802307128906,3.3173828125,929.494140625,-
160,841.0099487304688,45.79331588745117,3.29705810546875,928.8968505859375,-
161,846.2488403320312,45.434818267822266,3.291046142578125,928.2928466796875,-
162,851.6111450195312,45.233089447021484,3.290130615234375,927.6800537109375,-
163,855.188176134343,-,-,-,3.772060758296189e-07
164,857.1647338867188,45.34636306762695,3.2696533203125,927.057373046875,-
165,862.8604736328125,45.62522506713867,3.22967529296875,926.4255981445312,-
166,868.9092407226562,45.93479537963867,3.18975830078125,925.7877197265625,-
167,874.9754638671875,46.17744445800781,3.137908935546875,925.1484985351562,-
168,880.5226440429688,46.24475860595703,3.078216552734375,924.513916015625,-
169,885.0740177423905,-,-,-,4.1861602239329656e-07
170,885.7518920898438,46.2355842590332,3.03033447265625,923.8872680664062,-
171,891.2070922851562,46.43494415283203,2.98016357421875,923.2709350585938,-
172,896.9150390625,46.806732177734375,2.92974853515625,922.6668701171875,-
173,902.469970703125,47.094688415527344,2.876678466796875,922.0757446289062,-
174,907.6506958007812,47.269447326660156,2.82684326171875,921.498046875,-
175,912.3864135742188,47.42289352416992,2.786529541015625,920.9317016601562,-
176,914.959859350438,-,-,-,4.750441124533852e-07
177,916.7785034179688,47.59819030761719,2.746978759765625,920.3707885742188,-
178,921.1493530273438,47.95452117919922,2.704345703125,919.8085327148438,-
179,925.8741455078125,48.46623992919922,2.6602783203125,919.2381591796875,-
180,931.0969848632812,49.03274917602539,2.6219482421875,918.6581420898438,-
181,936.76904296875,49.532981872558594,2.570098876953125,918.0672607421875,-
182,942.5424194335938,50.150341033935554,2.51409912109375,917.467041015625,-
183,944.8457009584855,-,-,-,5.327290558344104e-07
184,948.2244873046875,51.08510208129883,2.465911865234375,916.8615112304688,-
185,953.9481811523438,52.51120758056641,2.417205810546875,916.252685546875,-
186,959.5438842773438,53.98316192626953,2.374481201171875,915.6425170898438,-
187,964.6220092773438,54.2813377380371,2.332244873046875,915.0309448242188,-
188,969.5045776367188,53.81161499023438,2.28424072265625,914.4165649414062,-
189,974.731542566533,-,-,-,6.104643462126806e-07
190,974.8709716796875,54.127132415771484,2.2315673828125,913.799560546875,-
191,980.649169921875,55.090335845947266,2.172119140625,913.17919921875,-
192,986.4152221679688,56.09650421142578,2.12158203125,912.556396484375,-
193,991.9962768554688,56.80616760253906,2.07403564453125,911.932373046875,-
194,997.340576171875,57.2413330078125,2.024749755859375,911.3085327148438,-
195,1002.4695434570312,57.581947326660156,1.976104736328125,910.6845703125,-
196,1004.6173841745805,-,-,-,6.723076061456028e-07
197,1007.7075805664062,57.77864456176758,1.931732177734375,910.0585327148438,-
198,1013.2926025390625,57.96529769897462,1.887603759765625,909.4265747070312,-
199,1019.448974609375,58.33722686767578,1.83355712890625,908.7891845703125,-
200,1026.0562744140625,58.85887145996094,1.766754150390625,908.1470947265625,-
201,1032.4986572265625,59.40317535400391,1.70806884765625,907.5026245117188,-
202,1034.5032257826279,-,-,-,7.204011324273995e-07
203,1038.1632080078125,59.64756393432617,1.657806396484375,906.8583984375,-
204,1043.1458740234375,59.69075012207031,1.61102294921875,906.2125854492188,-
205,1048.0469970703125,59.93682098388672,1.56793212890625,905.5617065429688,-
206,1053.4981689453125,60.50506591796875,1.525054931640625,904.9016723632812,-
207,1059.6033935546875,61.21536636352539,1.469696044921875,904.228271484375,-
208,1064.3890673906753,-,-,-,7.598954044097828e-07
209,1066.0380859375,61.7820816040039,1.412750244140625,903.541259765625,-
210,1072.7357177734375,62.13047790527344,1.361328125,902.8406372070312,-
211,1079.6572265625,62.50037384033204,1.308013916015625,902.1317138671875,-
212,1086.5482177734375,62.831123352050774,1.24188232421875,901.41943359375,-
213,1093.048095703125,63.09430694580078,1.174285888671875,900.7103271484375,-
214,1094.2749089987228,-,-,-,7.923883614233007e-07
215,1098.85595703125,63.29106903076172,1.1141357421875,900.0127563476562,-
216,1104.381591796875,63.617141723632805,1.0684814453125,899.3319091796875,-
217,1110.1865234375,64.27728271484375,1.02215576171875,898.668212890625,-
218,1115.96484375,64.93412017822266,0.973419189453125,898.0202026367188,-
219,1121.46484375,65.26083374023438,0.927978515625,897.3831787109375,-
220,1124.1607506067703,-,-,-,7.852044813708509e-07
221,1126.890380859375,65.51002502441406,0.878936767578125,896.75146484375,-
222,1132.2042236328125,65.81936645507812,0.822601318359375,896.1190185546875,-
223,1137.189453125,66.14579772949219,0.77294921875,895.4775390625,-
224,1142.3807373046875,66.73577880859375,0.736236572265625,894.8199462890625,-
225,1148.211669921875,67.66776275634766,0.696624755859375,894.1431274414062,-
226,1154.0465922148178,-,-,-,7.475027908369314e-07
227,1154.648681640625,68.5429458618164,0.655914306640625,893.4473876953125,-
228,1161.5394287109375,68.86287689208984,0.615509033203125,892.739013671875,-
229,1168.7642822265625,68.67276763916016,0.571258544921875,892.0260009765625,-
230,1175.927490234375,68.476318359375,0.516754150390625,891.3182983398438,-
231,1182.804931640625,68.40998077392578,0.456787109375,890.6222534179688,-
232,1183.9324338228653,-,-,-,7.127536910821796e-07
233,1189.227783203125,68.31463623046875,0.396209716796875,889.9418334960938,-
234,1194.9586181640625,68.07938385009766,0.3511962890625,889.279052734375,-
235,1200.128173828125,67.90544128417969,0.309173583984375,888.6312255859375,-
236,1205.0213623046875,67.83399200439453,0.26422119140625,887.9934692382812,-
237,1209.9486083984375,67.72977447509766,0.223785400390625,887.3604736328125,-
238,1213.8182754309128,-,-,-,6.938342215066598e-07
239,1215.3626708984375,67.68482971191406,0.18994140625,886.728515625,-
240,1221.4080810546875,67.80401611328125,0.145263671875,886.0979614257812,-
241,1227.663330078125,67.8478012084961,0.089202880859375,885.4732055664062,-
242,1233.6241455078125,67.68550109863281,0.034576416015625,884.8582153320312,-
243,1239.059326171875,67.50605773925781,-0.013580322265625,884.2562866210938,-
244,1243.7041170389602,-,-,-,7.017336569676577e-07
245,1244.1595458984375,67.53620147705078,-0.0601806640625,883.6665649414062,-
246,1249.122802734375,67.79456329345703,-0.102569580078125,883.084228515625,-
247,1254.1221923828125,68.14984893798828,-0.147491455078125,882.5038452148438,-
248,1259.4561767578125,68.47167205810547,-0.188232421875,881.920166015625,-
249,1265.11376953125,68.73212432861328,-0.2354736328125,881.3299560546875,-
250,1270.697998046875,68.8764877319336,-0.2864990234375,880.730712890625,-
251,1273.5899586470077,-,-,-,6.881116236202712e-07
252,1276.0560302734375,68.8429183959961,-0.327056884765625,880.1227416992188,-
253,1281.5072021484375,68.86438751220703,-0.362274169921875,879.5078125,-
254,1287.41943359375,69.11644744873047,-0.4080810546875,878.8875732421875,-
255,1293.7197265625,69.38175964355469,-0.452606201171875,878.2656860351562,-
256,1299.935791015625,69.49165344238281,-0.50347900390625,877.6468505859375,-
257,1303.4758002550552,-,-,-,6.564882419188944e-07
258,1305.8592529296875,69.48844909667969,-0.560150146484375,877.0347900390625,-
259,1311.48193359375,69.39518737792969,-0.61419677734375,876.431884765625,-
260,1316.7371826171875,69.23994445800781,-0.647674560546875,875.8377075195312,-
261,1321.620361328125,69.14833068847656,-0.663482666015625,875.2489624023438,-
262,1326.504638671875,69.28186798095703,-0.687744140625,874.661865234375,-
263,1331.610595703125,69.50430297851562,-0.731536865234375,874.072021484375,-
264,1333.3616418631027,-,-,-,6.11069226781738e-07
265,1337.069091796875,69.59131622314453,-0.78179931640625,873.4759521484375,-
266,1342.9697265625,69.6496353149414,-0.829925537109375,872.8740844726562,-
267,1349.2890625,69.89478302001953,-0.879425048828125,872.26904296875,-
268,1355.64990234375,70.19741821289062,-0.937591552734375,871.6644897460938,-
269,1361.67626953125,70.31209564208984,-0.992767333984375,871.0657348632812,-
270,1363.2474834711502,-,-,-,5.703079536105358e-07
271,1367.29931640625,70.30925750732422,-1.0430908203125,870.4763793945312,-
272,1372.4801025390625,70.39405822753906,-1.086456298828125,869.8978271484375,-
273,1377.2601318359375,70.65597534179688,-1.130340576171875,869.3265380859375,-
274,1382.20458984375,71.04420471191406,-1.17578125,868.7576293945312,-
