,alt,rh,temp,pressure,att_bsc
0,151.73187255859375,70.0,12.0,1012.5049438476562,-
1,152.3872833251953,73.12394714355469,11.9932861328125,1012.1400146484375,-
2,156.6988983154297,73.3124008178711,11.823699951171875,1011.4564208984375,-
3,162.45835876464844,73.6640853881836,11.70263671875,1010.640380859375,-
4,167.8138191492509,-,-,-,-3.961685841786081e-08
5,169.03231811523438,73.6119613647461,11.53173828125,1009.739990234375,-
6,175.5145721435547,73.56755828857422,11.344512939453125,1008.956298828125,-
7,181.27687072753906,73.54747772216797,11.230865478515625,1008.3453369140625,-
8,186.26063537597656,73.40078735351562,11.15435791015625,1007.8062133789062,-
9,190.58029174804688,73.46712493896484,11.0662841796875,1007.1517944335938,-
10,195.3305206298828,73.73451232910156,10.97802734375,1006.5053100585938,-
11,197.69966075729837,-,-,-,5.805806959162268e-07
12,200.9735565185547,73.9727554321289,10.92254638671875,1005.8643188476562,-
13,206.99847412109375,74.2779312133789,10.8544921875,1005.2271728515625,-
14,212.70431518554688,74.4679183959961,10.792755126953125,1004.5908813476562,-
15,217.70042419433594,74.30428314208984,10.751739501953125,1003.9510498046875,-
16,222.4473419189453,74.09559631347656,10.714813232421875,1003.3038330078125,-
17,227.58550236534586,-,-,-,6.339434035870234e-07
18,227.6098175048828,74.2211685180664,10.66943359375,1002.6461181640625,-
19,233.52749633789062,74.48262786865234,10.620819091796875,1001.974609375,-
20,240.10791015625,74.72697448730469,10.5672607421875,1001.2907104492188,-
21,246.87710571289062,75.08108520507812,10.5068359375,1000.5997314453125,-
22,253.3942108154297,75.37100219726562,10.447357177734375,999.9051513671875,-
23,257.47134397339335,-,-,-,9.445965076408659e-07
24,259.4425048828125,75.68610382080078,10.3924560546875,999.2074584960938,-
25,264.6299743652344,76.051513671875,10.34765625,998.5054321289062,-
26,268.94415283203125,76.29000091552734,10.289581298828125,997.7962646484375,-
27,273.60491943359375,76.50243377685547,10.2261962890625,997.0751342773438,-
28,279.2347412109375,76.64627075195312,10.17523193359375,996.33984375,-
29,285.3047180175781,76.85105895996094,10.10491943359375,995.5894775390625,-
30,287.35718558144083,-,-,-,1.109857888493387e-06
31,292.0007019042969,77.15037536621094,10.03228759765625,994.8250122070312,-
32,299.16729736328125,77.35169982910156,9.97479248046875,994.0509643554688,-
33,306.5910339355469,77.33698272705078,9.922027587890625,993.2750854492188,-
34,314.0146484375,77.20377349853516,9.858001708984375,992.5064086914062,-
35,317.2430271894883,-,-,-,8.373894081273185e-07
36,321.17303466796875,77.19010162353516,9.78826904296875,991.7579956054688,-
37,327.7186279296875,77.48114013671875,9.715423583984375,991.0416259765625,-
38,333.494140625,77.90357208251953,9.646453857421875,990.3617553710938,-
39,338.3945007324219,78.23544311523438,9.59130859375,989.7183227539062,-
40,342.8990478515625,78.47300720214844,9.54595947265625,989.1072998046875,-
41,347.1288687975358,-,-,-,7.402335029043005e-07
42,347.5461730957031,78.75274658203125,9.499847412109375,988.5213623046875,-
43,352.0987243652344,78.84219360351562,9.452606201171875,987.9532470703125,-
44,356.5390625,78.87181854248047,9.400634765625,987.3970947265625,-
45,361.22186279296875,79.09041595458984,9.35052490234375,986.8494873046875,-
46,366.0533447265625,79.31415557861328,9.310150146484375,986.3070678710938,-
47,370.6396789550781,79.53242492675781,9.27227783203125,985.7683715820312,-
48,374.936279296875,79.84410858154297,9.23040771484375,985.234130859375,-
49,377.0147104055833,-,-,-,7.275068766512435e-07
50,379.3838806152344,80.12492370605469,9.183319091796875,984.7064208984375,-
51,384.2613525390625,80.36034393310547,9.135101318359375,984.1879272460938,-
52,388.9288330078125,80.53340911865234,9.089385986328125,983.6801147460938,-
53,392.8431701660156,80.73458099365234,9.04901123046875,983.1797485351562,-
54,396.115234375,80.74617767333984,9.00482177734375,982.6812744140625,-
55,399.4922790527344,80.68756103515625,8.980682373046875,982.1776123046875,-
56,403.51361083984375,81.09939575195312,8.95513916015625,981.6634521484375,-
57,406.9005520136308,-,-,-,6.69045701001112e-07
58,408.3174133300781,81.13444519042969,8.92431640625,981.1392211914062,-
59,413.59185791015625,80.96780395507812,8.887542724609375,980.609130859375,-
60,418.72125244140625,80.8072280883789,8.83477783203125,980.0771484375,-
61,423.1351318359375,80.23731994628906,8.781951904296875,979.544189453125,-
62,426.82049560546875,79.29448699951172,8.75189208984375,979.0062866210938,-
63,430.50823974609375,78.91444396972656,8.72674560546875,978.4551391601562,-
64,434.64825439453125,78.61859130859375,8.6981201171875,977.8828125,-
65,436.78639362167826,-,-,-,6.12313273182928e-07
66,439.29876708984375,78.61570739746094,8.657745361328125,977.2835083007812,-
67,444.4922790527344,78.74787902832031,8.60418701171875,976.656982421875,-
68,450.0741882324219,78.80290222167969,8.5545654296875,976.0054321289062,-
69,456.0663757324219,78.89270782470703,8.49737548828125,975.3340454101562,-
70,462.55938720703125,78.53336334228516,8.446014404296875,974.6511840820312,-
71,466.67223522972574,-,-,-,6.208627854938985e-07
72,469.4129333496094,78.43359375,8.38262939453125,973.9625244140625,-
73,475.77972412109375,78.3222885131836,8.328765869140625,973.2737426757812,-
74,481.42169189453125,77.84349822998047,8.277130126953125,972.5842895507812,-
75,486.71875,77.59123992919922,8.22686767578125,971.8926391601562,-
76,492.1317443847656,77.84467315673828,8.171234130859375,971.1976928710938,-
77,496.5580768377732,-,-,-,6.448963106455032e-07
78,497.73919677734375,78.35540771484375,8.11688232421875,970.5003051757812,-
79,503.5811462402344,79.02289581298828,8.052642822265625,969.7998657226562,-
80,509.81201171875,79.46171569824219,7.994049072265625,969.0997924804688,-
81,516.5696411132812,79.36759185791016,7.933929443359375,968.40283203125,-
82,523.3441162109375,79.21083068847656,7.875091552734375,967.7112426757812,-
83,526.4439184458207,-,-,-,6.863083728085192e-07
84,529.5784301757812,79.29411315917969,7.8153076171875,967.0236206054688,-
85,535.2543334960938,79.45635986328125,7.763641357421875,966.3359985351562,-
86,540.688232421875,79.64804077148438,7.71722412109375,965.6444702148438,-
87,545.9647216796875,79.84857940673828,7.66656494140625,964.9476318359375,-
88,551.5711669921875,80.12605285644531,7.6097412109375,964.2450561523438,-
89,556.3297600538682,-,-,-,7.464231986987009e-07
90,557.711669921875,80.22129821777344,7.561370849609375,963.5430297851562,-
91,564.286865234375,80.55595397949219,7.509765625,962.8516235351562,-
92,570.5700073242188,81.34227752685547,7.4293212890625,962.184326171875,-
93,576.3226318359375,81.53474426269531,7.369659423828125,961.5501708984375,-
94,581.0308837890625,81.82705688476562,7.309234619140625,960.9517822265625,-
95,584.8308715820312,82.30345153808594,7.24884033203125,960.3851318359375,-
96,586.2156016619157,-,-,-,8.111056201920562e-07
97,588.404296875,82.43171691894531,7.207916259765625,959.8407592773438,-
98,592.3792114257812,82.5084457397461,7.172882080078125,959.3040771484375,-
99,596.7476196289062,82.530517578125,7.1400146484375,958.76220703125,-
100,601.5333862304688,82.55757141113281,7.108001708984375,958.205078125,-
101,606.5759887695312,82.9227523803711,7.062225341796875,957.628662109375,-
102,611.722412109375,83.4248275756836,7.01123046875,957.0315551757812,-
103,616.1014432699632,-,-,-,8.923551959057742e-07
104,616.8838500976562,84.06904602050781,6.952484130859375,956.4153442382812,-
105,621.9769287109375,84.74772644042969,6.897064208984375,955.7831420898438,-
106,627.1334228515625,85.23746490478516,6.84588623046875,955.14111328125,-
107,632.5966186523438,85.53480529785156,6.776336669921875,954.4940185546875,-
108,638.6641845703125,85.39579010009766,6.714324951171875,953.84716796875,-
109,645.1187744140625,85.15913391113281,6.66558837890625,953.2069091796875,-
110,645.9872848780107,-,-,-,9.820595280813423e-07
111,651.2559204101562,85.27837371826172,6.607177734375,952.577392578125,-
112,656.705810546875,85.76557159423828,6.5506591796875,951.9619750976562,-
113,661.5119018554688,86.31169128417969,6.493988037109375,951.3604125976562,-
114,665.78466796875,86.7333755493164,6.437347412109375,950.7695922851562,-
115,670.033935546875,86.81868743896484,6.393341064453125,950.1858520507812,-
116,674.7449340820312,86.6929702758789,6.357025146484375,949.60693359375,-
117,675.8731264860581,-,-,-,1.125953441819519e-06
118,679.521484375,86.88600158691406,6.312255859375,949.0303344726562,-
119,684.0422973632812,87.7551040649414,6.264190673828125,948.4522094726562,-
120,688.424072265625,89.2674560546875,6.204498291015625,947.8685302734375,-
121,693.5018310546875,90.51740264892578,6.146026611328125,947.2738647460938,-
122,699.27099609375,90.4421157836914,6.097686767578125,946.6626586914062,-
123,705.3760375976562,90.32733917236328,6.05810546875,946.0330810546875,-
124,705.7589680941056,-,-,-,1.212816297783789e-06
125,711.3939208984375,91.93488311767578,6.0106201171875,945.3893432617188,-
126,717.3262329101562,94.12889862060547,5.925201416015625,944.7353515625,-
127,723.145263671875,94.76746368408203,5.844451904296875,944.0769653320312,-
128,728.72119140625,94.23633575439453,5.77496337890625,943.4172973632812,-
129,733.8197631835938,93.23883819580078,5.72369384765625,942.7556762695312,-
130,735.6448097021531,-,-,-,1.331224518531807e-06
131,738.5825805664062,91.63510131835938,5.689117431640625,942.0906982421875,-
132,743.4887084960938,89.47541809082031,5.676849365234375,941.4232177734375,-
133,749.065185546875,89.03315734863281,5.645172119140625,940.75439453125,-
134,755.5286254882812,90.01803588867188,5.59381103515625,940.0901489257812,-
135,762.3306274414062,90.87062072753906,5.51519775390625,939.4412231445312,-
136,765.5306513102006,-,-,-,1.5494686392152133e-06
137,768.6326293945312,90.6606216430664,5.443878173828125,938.8163452148438,-
138,773.9561767578125,89.88922119140625,5.39666748046875,938.2185668945312,-
139,778.4290161132812,89.67354583740234,5.35833740234375,937.646240234375,-
140,782.2626953125,90.20362854003906,5.31854248046875,937.091796875,-
141,786.0643310546875,90.68556213378906,5.276031494140625,936.54443359375,-
142,790.2117919921875,90.91110229492188,5.227935791015625,935.9930419921875,-
143,794.724853515625,90.90731048583984,5.19158935546875,935.4310913085938,-
144,795.4164929182481,-,-,-,1.8128297145326472e-06
145,800.0045166015625,91.18618774414062,5.15228271484375,934.854736328125,-
146,806.15478515625,92.0940933227539,5.097259521484375,934.2685546875,-
147,812.6548461914062,93.22601318359375,5.029296875,933.68115234375,-
148,818.9202880859375,94.12239837646484,4.964569091796875,933.1048583984375,-
149,824.384521484375,94.9926528930664,4.902740478515625,932.5541381835938,-
150,825.3023345262956,-,-,-,3.486639497609459e-06
151,828.7711791992188,95.58499145507812,4.841583251953125,932.0401000976562,-
152,832.1033325195312,95.74649047851562,4.795928955078125,931.5664672851562,-
153,834.7080078125,95.56721496582031,4.7655029296875,931.1272583007812,-
154,837.0025024414062,95.30989837646484,4.74298095703125,930.7090454101562,-
155,839.529541015625,95.30475616455078,4.71649169921875,930.2939453125,-
156,842.8165893554688,95.67377471923828,4.683074951171875,929.8653564453125,-
157,846.9529418945312,96.2551040649414,4.644561767578125,929.4110717773438,-
158,851.738037109375,96.3631362915039,4.604461669921875,928.9293212890625,-
159,855.188176134343,-,-,-,5.645656866814844e-06
160,856.908447265625,95.77257537841797,4.5577392578125,928.425537109375,-
161,862.023681640625,94.62652587890625,4.519439697265625,927.9085693359375,-
162,866.8068237304688,93.96551513671875,4.490936279296875,927.3862915039062,-
163,871.1473388671875,94.52345275878906,4.450439453125,926.8590698242188,-
164,875.3984985351562,95.39083099365234,4.387298583984375,926.322265625,-
165,879.9068603515625,95.60850524902344,4.339508056640625,925.7713012695312,-
166,884.8423461914062,95.47047424316406,4.301300048828125,925.2037353515625,-
167,885.0740177423905,-,-,-,1.0225099742993707e-05
168,890.2669067382812,95.3541030883789,4.266815185546875,924.6201171875,-
169,896.0809326171875,95.61978149414062,4.217041015625,924.0263061523438,-
170,902.0028686523438,96.21375274658203,4.157501220703125,923.4307861328125,-
171,907.809326171875,97.09986114501953,4.105010986328125,922.8427124023438,-
172,913.2471313476562,98.5826644897461,4.05548095703125,922.2713012695312,-
173,914.959859350438,-,-,-,2.6017984788500596e-05
174,917.9478149414062,100.0,4.003570556640625,921.7250366210938,-
175,922.00146484375,100.0,3.980560302734375,921.2112426757812,-
176,925.771240234375,100.0,3.955474853515625,920.7320556640625,-
177,929.4489135742188,100.0,3.9361572265625,920.2869262695312,-
178,933.189697265625,100.0,3.908477783203125,919.8731689453125,-
179,936.8095092773438,100.0,3.86541748046875,919.4825439453125,-
180,939.9187622070312,100.0,3.84539794921875,919.1058349609375,-
181,942.6595458984375,100.0,3.84222412109375,918.7335815429688,-
182,944.8457009584855,-,-,-,4.8141415060099814e-05
183,945.1878662109375,100.0,3.8341064453125,918.354248046875,-
184,947.8787841796875,100.0,3.819549560546875,917.9619140625,-
185,951.1390380859375,100.0,3.74993896484375,917.5556640625,-
186,955.0647583007812,100.0,3.67291259765625,917.13330078125,-
187,959.383056640625,100.0,3.657958984375,916.6950073242188,-
188,964.0491333007812,100.0,3.64703369140625,916.2434692382812,-
189,968.6407470703125,100.0,3.62591552734375,915.7778930664062,-
190,972.9208374023438,100.0,3.608856201171875,915.2996826171875,-
191,974.731542566533,-,-,-,6.84526782419887e-05
192,976.997802734375,100.0,3.59130859375,914.8131713867188,-
