,alt,rh,temp,pressure,att_bsc
0,151.4408416748047,50.51702880859376,19.642059326171875,1001.205810546875,-
1,151.73187255859375,53.0,19.399993896484375,1001.6405639648438,-
2,155.94711303710938,48.98530197143555,19.585784912109375,1000.3175659179688,-
3,161.50369262695312,46.2264289855957,19.713104248046875,999.6792602539062,-
4,166.83270263671875,44.71372985839844,19.770416259765625,999.3182983398438,-
5,167.8138191492509,-,-,-,-1.319402058103948e-06
6,172.09564208984375,44.43500518798828,19.76544189453125,998.7643432617188,-
7,177.73179626464844,44.32168960571289,19.720550537109375,998.107666015625,-
8,183.1481170654297,44.06536865234375,19.6746826171875,997.5239868164062,-
9,187.53469848632812,43.754459381103516,19.663726806640625,996.928466796875,-
10,192.29730224609375,43.59521484375,19.647735595703125,996.3244018554688,-
11,197.69966075729837,-,-,-,6.783551605687153e-08
12,198.10227966308594,43.475318908691406,19.59832763671875,995.7171020507812,-
13,204.0897216796875,43.30581283569336,19.559783935546875,995.1116333007812,-
14,209.53733825683594,43.411712646484375,19.5179443359375,994.5144653320312,-
15,214.29225158691406,43.63795471191406,19.4688720703125,993.9285888671875,-
16,218.51783752441406,43.75469207763672,19.41632080078125,993.3553466796875,-
17,222.72247314453125,43.525245666503906,19.3702392578125,992.7939453125,-
18,227.3773193359375,43.06692123413086,19.34625244140625,992.2421264648438,-
19,227.58550236534586,-,-,-,2.7986173532649167e-07
20,232.0832061767578,42.85788345336914,19.323272705078125,991.6986694335938,-
21,235.98805236816406,42.90087127685547,19.2889404296875,991.1602172851562,-
22,239.58396911621094,43.00963592529297,19.260711669921875,990.6235961914062,-
23,244.50694274902344,43.14129638671875,19.2174072265625,990.0868530273438,-
24,250.2950897216797,43.27288818359375,19.161407470703125,989.5487060546875,-
25,255.72146606445312,43.408321380615234,19.108917236328125,989.0110473632812,-
26,257.47134397339335,-,-,-,5.073381427811512e-07
27,260.26922607421875,43.6037712097168,19.067596435546875,988.4746704101562,-
28,264.4033508300781,43.833553314208984,19.0145263671875,987.93994140625,-
29,268.8047180175781,43.806396484375,18.969085693359375,987.4061279296875,-
30,273.2711486816406,43.673892974853516,18.93707275390625,986.8723754882812,-
31,277.3066711425781,43.68181610107422,18.900726318359375,986.3386840820312,-
32,281.31982421875,43.780155181884766,18.85919189453125,985.806884765625,-
33,285.63128662109375,43.848472595214844,18.814300537109375,985.27783203125,-
34,287.35718558144083,-,-,-,4.30812953747987e-07
35,290.16986083984375,43.91172790527344,18.77703857421875,984.7516479492188,-
36,295.1291198730469,44.027130126953125,18.734893798828125,984.2282104492188,-
37,300.4986267089844,44.24626159667969,18.686126708984375,983.707763671875,-
38,306.0193176269531,44.53923034667969,18.625732421875,983.1917724609375,-
39,311.38031005859375,44.74211120605469,18.5625,982.68359375,-
40,315.81500244140625,44.65200424194336,18.509185791015625,982.181884765625,-
41,317.2430271894883,-,-,-,4.0415019505330923e-07
42,319.2921447753906,44.32170486450195,18.488616943359375,981.68603515625,-
43,322.7557678222656,44.20079040527344,18.476104736328125,981.1937255859375,-
44,327.0650939941406,44.426780700683594,18.443603515625,980.7019653320312,-
45,331.9533386230469,44.65617752075195,18.39910888671875,980.2076416015625,-
46,336.5494079589844,44.75457763671875,18.34942626953125,979.7081909179688,-
47,340.5789489746094,44.793819427490234,18.305816650390625,979.2012939453125,-
48,344.6895446777344,44.90853500366211,18.2694091796875,978.6882934570312,-
49,347.1288687975358,-,-,-,3.4925963167405037e-07
50,349.0744323730469,45.085472106933594,18.2364501953125,978.171142578125,-
51,353.4927673339844,45.233360290527344,18.189666748046875,977.6517333984375,-
52,357.9879150390625,45.32452392578125,18.136627197265625,977.1336059570312,-
53,362.34283447265625,45.3484001159668,18.090850830078125,976.6199951171875,-
54,366.3055725097656,45.42717742919922,18.050537109375,976.110595703125,-
55,370.1977844238281,45.64899826049805,18.009307861328125,975.604736328125,-
56,374.37109375,45.85689163208008,17.963409423828125,975.0994873046875,-
57,377.0147104055833,-,-,-,2.993637169365963e-07
58,378.89117431640625,45.939735412597656,17.91656494140625,974.5963134765625,-
59,383.4125061035156,45.99565124511719,17.87432861328125,974.0929565429688,-
60,388.2237243652344,46.12031555175781,17.835906982421875,973.5877685546875,-
61,393.452880859375,46.25971221923828,17.790252685546875,973.0792846679688,-
62,399.18670654296875,46.395668029785156,17.7474365234375,972.5642700195312,-
63,404.62615966796875,46.51175308227539,17.70758056640625,972.038818359375,-
64,406.9005520136308,-,-,-,2.901768342188874e-07
65,409.55670166015625,46.6138916015625,17.660308837890625,971.5015869140625,-
66,413.9217224121094,46.6464729309082,17.610107421875,970.9503173828125,-
67,418.005615234375,46.60368347167969,17.563079833984375,970.3865356445312,-
68,422.53240966796875,46.601768493652344,17.521392822265625,969.8124389648438,-
69,427.92767333984375,46.70680236816406,17.478515625,969.2325439453125,-
70,434.1142272949219,46.82469940185547,17.43231201171875,968.6507568359375,-
71,436.78639362167826,-,-,-,2.5651761551672e-07
72,440.5692138671875,46.94573211669922,17.372528076171875,968.0722045898438,-
73,446.4377746582031,46.996280670166016,17.31561279296875,967.4996948242188,-
74,451.3232727050781,46.975852966308594,17.260650634765625,966.9349365234375,-
75,455.8740539550781,46.89264678955078,17.222412109375,966.37646484375,-
76,460.5124206542969,46.99200439453125,17.1766357421875,965.8218383789062,-
77,465.12811279296875,47.11943817138672,17.126678466796875,965.2689208984375,-
78,466.67223522972574,-,-,-,2.66147527378945e-07
79,469.65985107421875,47.14767837524414,17.0802001953125,964.717529296875,-
80,473.96209716796875,47.10900115966797,17.0400390625,964.1664428710938,-
81,478.2336120605469,47.050045013427734,17.001953125,963.614501953125,-
82,482.9275207519531,47.141822814941406,16.961761474609375,963.0601196289062,-
83,488.0559387207031,47.33805847167969,16.91131591796875,962.5021362304688,-
84,493.1611633300781,47.49811553955078,16.8587646484375,961.93994140625,-
85,496.5580768377732,-,-,-,2.814860947997743e-07
86,497.9618225097656,47.68278121948242,16.81182861328125,961.374267578125,-
87,502.5879821777344,47.97121047973633,16.7630615234375,960.806884765625,-
88,507.7117614746094,48.25282669067383,16.71142578125,960.2396240234375,-
89,513.4961547851562,48.397525787353516,16.65191650390625,959.6741333007812,-
90,519.1512451171875,48.34539794921875,16.595184326171875,959.1112670898438,-
91,524.2105712890625,48.24185562133789,16.554229736328125,958.5501708984375,-
92,526.4439184458207,-,-,-,3.019680850763225e-07
93,528.9832763671875,48.40129089355469,16.511688232421875,957.990234375,-
94,533.6621704101562,48.72078323364258,16.465789794921875,957.4287719726562,-
95,538.6050415039062,48.9208984375,16.4171142578125,956.8641967773438,-
96,543.8107299804688,48.993064880371094,16.367401123046875,956.297119140625,-
97,549.2734375,48.97105407714844,16.319061279296875,955.7302856445312,-
98,554.8607788085938,48.93767166137695,16.270782470703125,955.16845703125,-
99,556.3297600538682,-,-,-,3.2743678614239933e-07
100,560.1952514648438,48.882205963134766,16.22332763671875,954.615478515625,-
101,564.9337768554688,48.87601852416992,16.178375244140625,954.0750732421875,-
102,569.2789306640625,49.00444412231445,16.137664794921875,953.5482788085938,-
103,573.3115234375,49.21300506591797,16.091888427734375,953.0331420898438,-
104,577.037841796875,49.417137145996094,16.049530029296875,952.5256958007812,-
105,580.8128051757812,49.590118408203125,16.013214111328125,952.0220947265625,-
106,585.0675048828125,49.770748138427734,15.966827392578125,951.5152587890625,-
107,586.2156016619157,-,-,-,3.438452942240008e-07
108,589.8389282226562,49.8364143371582,15.9222412109375,951.0015869140625,-
109,594.9200439453125,49.866390228271484,15.87841796875,950.4776611328125,-
110,600.1346435546875,50.02554702758789,15.8251953125,949.93896484375,-
111,605.1181640625,50.175140380859375,15.772674560546875,949.386962890625,-
112,609.8519287109375,50.227787017822266,15.730865478515625,948.8204956054688,-
113,614.5570068359375,50.3231086730957,15.6865234375,948.241943359375,-
114,616.1014432699632,-,-,-,3.555022342191325e-07
115,619.38330078125,50.4787483215332,15.6363525390625,947.6553344726562,-
116,624.3304443359375,50.59984588623047,15.58740234375,947.0640869140625,-
117,629.5674438476562,50.72005081176758,15.54864501953125,946.4720458984375,-
118,635.005859375,50.81465148925781,15.498382568359375,945.8825073242188,-
119,640.3894653320312,50.81281661987305,15.4500732421875,945.2954711914062,-
120,645.7225341796875,50.90641403198243,15.3990478515625,944.709228515625,-
121,645.9872848780107,-,-,-,3.692416708694386e-07
122,650.869873046875,51.066932678222656,15.349761962890625,944.1202392578125,-
123,656.092529296875,51.290851593017585,15.30615234375,943.5285034179688,-
124,661.7193603515625,51.59056091308594,15.2493896484375,942.935546875,-
125,667.4661254882812,51.842525482177734,15.180267333984375,942.3468017578125,-
126,672.889404296875,51.92429351806641,15.122161865234375,941.76904296875,-
127,675.8731264860581,-,-,-,3.7627835649105025e-07
128,677.8272094726562,51.915809631347656,15.07763671875,941.206298828125,-
129,682.4793090820312,52.01073455810546,15.03094482421875,940.6566772460938,-
130,686.9678344726562,52.22924423217774,14.986328125,940.119140625,-
131,691.461181640625,52.48344802856445,14.942352294921875,939.586669921875,-
132,696.1583862304688,52.78772735595704,14.902008056640625,939.052978515625,-
133,700.9002075195312,53.04989242553712,14.857574462890625,938.51318359375,-
134,705.7125244140625,53.262725830078125,14.81787109375,937.9664916992188,-
135,705.7589680941056,-,-,-,3.8970194675631934e-07
136,710.96826171875,53.577980041503906,14.78448486328125,937.4131469726562,-
137,716.4304809570312,53.84714889526367,14.7357177734375,936.85400390625,-
138,721.5628051757812,53.92029571533203,14.686553955078125,936.288818359375,-
139,726.6063842773438,54.05906295776367,14.644805908203125,935.7177124023438,-
140,731.9043579101562,54.401988983154304,14.581268310546875,935.13818359375,-
141,735.6448097021531,-,-,-,3.7773478236944085e-07
142,737.18505859375,54.59058380126953,14.517333984375,934.5486450195312,-
143,742.2029418945312,54.54511642456055,14.474639892578125,933.9454956054688,-
144,747.3457641601562,54.67019653320313,14.4305419921875,933.3271484375,-
145,753.136962890625,55.08455276489258,14.36883544921875,932.6950073242188,-
146,759.2960205078125,55.42833328247071,14.302734375,932.0510864257812,-
147,765.1485595703125,55.531509399414055,14.239990234375,931.39990234375,-
148,765.5306513102006,-,-,-,3.8924779425390465e-07
149,770.6463012695312,55.4600830078125,14.1885986328125,930.747802734375,-
150,776.2625122070312,55.50396728515625,14.134765625,930.1027221679688,-
151,782.1763305664062,55.65858459472657,14.080413818359375,929.470458984375,-
152,788.2442016601562,55.83729934692383,14.019622802734375,928.8543090820312,-
153,794.2346801757812,56.01210403442383,13.96044921875,928.2586059570312,-
154,795.4164929182481,-,-,-,3.839059352021917e-07
155,799.8936157226562,56.14906311035156,13.907562255859375,927.6859741210938,-
156,805.2093505859375,56.31496047973633,13.85821533203125,927.1354370117188,-
157,810.0874633789062,56.52998733520508,13.811737060546875,926.6014404296875,-
158,814.5404052734375,56.72353744506836,13.771484375,926.0768432617188,-
159,818.6691284179688,56.876834869384766,13.73321533203125,925.5540161132812,-
160,823.0546264648438,56.99741363525391,13.689178466796875,925.0247802734375,-
161,825.3023345262956,-,-,-,4.013481536362511e-07
162,827.9638671875,56.9520378112793,13.641510009765625,924.4845581054688,-
163,833.2119750976562,56.65855026245117,13.59954833984375,923.9307250976562,-
164,838.4732666015625,56.24746704101563,13.563995361328125,923.36376953125,-
165,843.8050537109375,55.91722869873047,13.535186767578125,922.7855224609375,-
166,849.268310546875,56.0535011291504,13.48577880859375,922.197998046875,-
167,854.7335815429688,56.44417572021484,13.427520751953125,921.6021118164062,-
168,855.188176134343,-,-,-,3.914764252073491e-07
169,860.158447265625,56.87037277221679,13.36798095703125,921.0003662109375,-
170,865.6297607421875,57.25667190551758,13.310333251953125,920.3941040039062,-
171,871.1136474609375,57.514720916748054,13.257171630859375,919.78515625,-
172,876.5023193359375,57.66445922851563,13.203765869140625,919.1734008789062,-
173,881.79150390625,57.7687873840332,13.14801025390625,918.5585327148438,-
174,885.0740177423905,-,-,-,3.948668904908076e-07
175,887.1829223632812,57.92187881469727,13.09619140625,917.9392700195312,-
176,892.775146484375,58.14521789550782,13.037994384765625,917.3145141601562,-
177,898.664306640625,58.25719070434571,12.983612060546875,916.6805419921875,-
178,904.9041748046875,58.38080978393555,12.9251708984375,916.0372314453125,-
179,911.4446411132812,58.45695495605469,12.866729736328125,915.38525390625,-
180,914.959859350438,-,-,-,3.894302883727614e-07
181,917.9789428710938,58.42170715332031,12.81170654296875,914.7261352539062,-
182,924.0662231445312,58.50001525878906,12.754180908203125,914.0602416992188,-
183,929.7731323242188,58.65247344970703,12.695404052734375,913.3903198242188,-
184,935.6104736328125,58.70350646972656,12.63958740234375,912.716552734375,-
185,941.9125366210938,58.678497314453125,12.585784912109375,912.03857421875,-
186,944.8457009584855,-,-,-,3.987766524218041e-07
187,948.3743896484375,58.486442565917976,12.539398193359375,911.3544311523438,-
188,954.8265380859375,58.33439636230469,12.4937744140625,910.6626586914062,-
189,961.3643188476562,58.41368103027344,12.442779541015625,909.9601440429688,-
190,968.0892944335938,58.93317031860351,12.3680419921875,909.2451782226562,-
191,974.731542566533,-,-,-,4.0581147536820364e-07
192,974.8307495117188,59.41184616088867,12.29315185546875,908.5169677734375,-
193,981.3802490234375,59.74862289428711,12.221405029296875,907.7763061523438,-
194,987.7376708984375,60.09422302246094,12.154052734375,907.0250854492188,-
195,994.27880859375,60.479400634765625,12.0860595703125,906.2666015625,-
196,1001.466064453125,60.844852447509766,12.0096435546875,905.5034790039062,-
197,1004.6173841745805,-,-,-,4.110511332979347e-07
198,1009.3077392578125,61.081993103027344,11.9403076171875,904.7432861328125,-
199,1017.1394653320312,61.35298156738281,11.85894775390625,903.9952392578125,-
200,1024.4114990234375,61.38907241821288,11.782562255859375,903.2689208984375,-
201,1030.87353515625,61.231273651123054,11.72491455078125,902.569580078125,-
202,1034.5032257826279,-,-,-,4.038088867297429e-07
203,1036.791259765625,61.187015533447266,11.675567626953125,901.9006958007812,-
204,1042.577880859375,61.493236541748054,11.62274169921875,901.25830078125,-
205,1048.1300048828125,61.97974395751953,11.558837890625,900.6339111328125,-
206,1053.3963623046875,62.18751907348633,11.50872802734375,900.0187377929688,-
207,1058.8682861328125,62.34088134765625,11.46295166015625,899.4054565429688,-
208,1064.3890673906753,-,-,-,4.30405246411078e-07
209,1064.789794921875,62.587215423583984,11.41064453125,898.7862548828125,-
210,1070.8388671875,62.85976028442383,11.346466064453125,898.1572875976562,-
211,1076.7872314453125,63.039127349853516,11.28900146484375,897.5184936523438,-
212,1082.69921875,63.12608337402344,11.23736572265625,896.8727416992188,-
213,1088.8665771484375,63.38546371459961,11.178924560546875,896.2249755859375,-
214,1094.2749089987228,-,-,-,4.1543209786423263e-07
215,1095.0902099609375,63.73188781738281,11.1064453125,895.580810546875,-
216,1101.2213134765625,63.81374740600586,11.046051025390625,894.9434204101562,-
217,1107.4119873046875,63.92177200317383,10.98565673828125,894.3167114257812,-
218,1113.3475341796875,64.04667663574219,10.92486572265625,893.701171875,-
219,1118.948486328125,64.07059478759766,10.876922607421875,893.09423828125,-
220,1124.1607506067703,-,-,-,4.09807721930515e-07
221,1124.5299072265625,64.2986831665039,10.82818603515625,892.4920654296875,-
222,1130.21484375,64.7210922241211,10.76983642578125,891.8912963867188,-
223,1135.990966796875,65.0141372680664,10.71148681640625,891.291015625,-
224,1141.7825927734375,65.11582946777344,10.655364990234375,890.6903686523438,-
225,1147.4283447265625,65.14970397949219,10.604217529296875,890.0909423828125,-
226,1152.7503662109375,65.18379211425781,10.554107666015625,889.4946899414062,-
227,1154.0465922148178,-,-,-,4.042314064404711e-07
228,1157.7608642578125,65.16453552246094,10.50823974609375,888.9005126953125,-
229,1162.692626953125,65.09513854980469,10.458404541015625,888.3060302734375,-
230,1167.8006591796875,64.98295593261719,10.408660888671875,887.7083129882812,-
231,1173.2811279296875,64.69694519042969,10.36248779296875,887.1055908203125,-
232,1179.1951904296875,64.37779235839844,10.318756103515625,886.4965209960938,-
233,1183.9324338228653,-,-,-,4.3182481368504785e-07
234,1185.45361328125,64.28978729248047,10.275787353515625,885.8831176757812,-
235,1191.8736572265625,64.5351791381836,10.223388671875,885.2697143554688,-
236,1198.1644287109375,64.95072937011719,10.162384033203125,884.6627807617188,-
237,1203.98291015625,65.33282470703125,10.101348876953125,884.0674438476562,-
238,1209.249267578125,65.76627349853516,10.0391845703125,883.4866333007812,-
239,1213.8182754309128,-,-,-,4.3328251630593993e-07
240,1214.1116943359375,66.12701416015625,9.986572265625,882.9215087890625,-
241,1218.93798828125,66.3020248413086,9.94158935546875,882.3694458007812,-
242,1223.9520263671875,66.29703521728516,9.89739990234375,881.8255615234375,-
243,1229.0821533203125,65.90758514404297,9.85205078125,881.2852783203125,-
244,1234.197998046875,65.09583282470703,9.842254638671875,880.7435913085938,-
245,1239.2958984375,64.78299713134766,9.819854736328125,880.1969604492188,-
246,1243.7041170389602,-,-,-,4.3599573596220865e-07
247,1244.4259033203125,65.00767517089844,9.77142333984375,879.6423950195312,-
248,1249.6568603515625,65.25541687011719,9.7239990234375,879.0772094726562,-
249,1255.0057373046875,65.49595642089844,9.6787109375,878.500732421875,-
250,1260.3133544921875,65.74400329589844,9.63116455078125,877.9150390625,-
251,1265.7071533203125,65.97486877441406,9.581939697265625,877.3222045898438,-
252,1271.3387451171875,66.2011947631836,9.522674560546875,876.7264404296875,-
253,1273.5899586470077,-,-,-,4.6252765625987793e-07
254,1276.9981689453125,66.28250122070312,9.47021484375,876.1327514648438,-
255,1282.76611328125,66.35546875,9.4210205078125,875.5447998046875,-
256,1288.7200927734375,66.57907104492188,9.364715576171875,874.9641723632812,-
257,1294.4359130859375,66.7101058959961,9.308685302734375,874.3892211914062,-
258,1299.85498046875,66.69044494628906,9.258514404296875,873.818603515625,-
259,1303.4758002550552,-,-,-,4.904139083246063e-07
260,1305.24658203125,66.69422149658203,9.21246337890625,873.2504272460938,-
261,1310.6080322265625,66.8173828125,9.16619873046875,872.680908203125,-
262,1315.8089599609375,66.93247985839844,9.11505126953125,872.1101684570312,-
263,1320.9052734375,66.84973907470703,9.07000732421875,871.5357666015625,-
264,1326.1654052734375,66.65559387207031,9.02728271484375,870.9558715820312,-
265,1331.8533935546875,66.60175323486328,8.984100341796875,870.3695068359375,-
266,1333.3616418631027,-,-,-,4.511252769485851e-07
267,1338.0325927734375,66.8004150390625,8.93109130859375,869.7754516601562,-
268,1344.660400390625,67.10772705078125,8.871246337890625,869.1769409179688,-
269,1351.3365478515625,67.31250762939453,8.808349609375,868.5782470703125,-
270,1357.3768310546875,67.2453384399414,8.748016357421875,867.982666015625,-
271,1362.6854248046875,66.98030090332031,8.707550048828125,867.3901977539062,-
272,1363.2474834711502,-,-,-,4.803355358158106e-07
273,1367.85205078125,66.98067474365234,8.66717529296875,866.8006591796875,-
