,alt,rh,temp,pressure,att_bsc
0,151.0286102294922,43.703617095947266,20.40325927734375,1000.0635375976562,-
1,151.73187255859375,41.0,21.100006103515625,1000.2474365234375,-
2,153.3226776123047,41.869136810302734,20.2392578125,999.5494384765625,-
3,157.6509246826172,41.055355072021484,20.22613525390625,998.8679809570312,-
4,163.52780151367188,39.96714782714844,20.205718994140625,998.177734375,-
5,167.8138191492509,-,-,-,-9.632116276159438e-07
6,169.5825653076172,38.14487075805664,20.00750732421875,997.6660766601562,-
7,175.27029418945312,37.25005340576172,19.809234619140625,997.06640625,-
8,181.07208251953125,37.29246139526367,19.63604736328125,996.4469604492188,-
9,186.54649353027344,37.4113883972168,19.5107421875,995.8671875,-
10,190.61895751953125,37.50740051269531,19.451751708984375,995.2958984375,-
11,194.2820587158203,37.58408737182617,19.39227294921875,994.7364501953125,-
12,197.69966075729837,-,-,-,3.0646527599986356e-07
13,198.3762664794922,37.53848648071289,19.32464599609375,994.1890869140625,-
14,202.69664001464844,37.46281051635742,19.25732421875,993.6528930664062,-
15,206.77066040039062,37.452701568603516,19.198516845703125,993.1242065429688,-
16,210.80831909179688,37.51138687133789,19.146209716796875,992.600830078125,-
17,215.39414978027344,37.62970733642578,19.1025390625,992.077392578125,-
18,220.2958526611328,37.734188079833984,19.05963134765625,991.5479736328125,-
19,224.71044921875,37.806907653808594,19.020660400390625,991.01025390625,-
20,227.58550236534586,-,-,-,3.411519309655769e-07
21,228.3350067138672,37.91196060180664,18.985870361328125,990.46484375,-
22,232.6494903564453,38.074554443359375,18.94097900390625,989.9139404296875,-
23,238.00726318359375,38.251930236816406,18.884674072265625,989.3649291992188,-
24,243.57582092285156,38.343929290771484,18.83160400390625,988.826171875,-
25,248.65158081054688,38.40748977661133,18.7872314453125,988.3075561523438,-
26,253.3212432861328,38.45995330810547,18.739532470703125,987.8154296875,-
27,257.47134397339335,-,-,-,3.666512773079388e-07
28,257.5697021484375,38.442840576171875,18.706512451171875,987.349853515625,-
29,261.23468017578125,38.36241149902344,18.675628662109375,986.9066162109375,-
30,264.5814208984375,38.3749885559082,18.6429443359375,986.478271484375,-
31,268.23699951171875,38.377685546875,18.60772705078125,986.0565185546875,-
32,272.2811279296875,38.2490234375,18.556488037109375,985.6342163085938,-
33,276.3776550292969,38.190467834472656,18.498046875,985.2064819335938,-
34,280.33453369140625,38.28462219238281,18.451507568359375,984.77392578125,-
35,284.0709533691406,38.367706298828125,18.414642333984375,984.3368530273438,-
36,287.35718558144083,-,-,-,4.6775299058373957e-07
37,287.5876159667969,38.44473648071289,18.383087158203125,983.8931274414062,-
38,291.0271911621094,38.5658073425293,18.3509521484375,983.4424438476562,-
39,294.7550964355469,38.708412170410156,18.31689453125,982.98388671875,-
40,299.05401611328125,38.8636474609375,18.286529541015625,982.5177001953125,-
41,303.6715087890625,38.932167053222656,18.23797607421875,982.0467529296875,-
42,308.14727783203125,38.99200439453125,18.191192626953125,981.575927734375,-
43,312.0231018066406,39.17388916015625,18.1556396484375,981.1094970703125,-
44,315.4425048828125,39.38676834106445,18.13079833984375,980.6494750976562,-
45,317.2430271894883,-,-,-,3.647632323401236e-07
46,318.9451599121094,39.368133544921875,18.101715087890625,980.1953735351562,-
47,323.0665588378906,39.241233825683594,18.057891845703125,979.7451171875,-
48,327.5570068359375,39.31917190551758,18.016571044921875,979.296875,-
49,332.0395202636719,39.5185546875,17.975982666015625,978.8491821289062,-
50,336.14764404296875,39.64633560180664,17.932281494140625,978.4009399414062,-
51,339.70782470703125,39.74087905883789,17.894195556640625,977.95068359375,-
52,343.1629333496094,39.86279296875,17.86566162109375,977.497314453125,-
53,346.8819580078125,40.024574279785156,17.836273193359375,977.0413818359375,-
54,347.1288687975358,-,-,-,3.382834074689867e-07
55,350.9255065917969,40.104549407958984,17.7940673828125,976.5838623046875,-
56,355.20721435546875,40.13064193725586,17.743621826171875,976.1279296875,-
57,359.8900146484375,40.19771194458008,17.708404541015625,975.6770629882812,-
58,364.6176452636719,40.248172760009766,17.66717529296875,975.2373046875,-
59,368.6671142578125,40.21690368652344,17.61346435546875,974.8118896484375,-
60,371.66827392578125,40.188663482666016,17.568878173828125,974.4014892578125,-
61,374.0582275390625,40.24796676635742,17.538482666015625,974.0010375976562,-
62,376.4330139160156,40.35045623779297,17.51544189453125,973.60205078125,-
63,377.0147104055833,-,-,-,3.222620262753229e-07
64,379.5870666503906,40.4963264465332,17.4857177734375,973.1947631835938,-
65,383.91912841796875,40.59048080444336,17.44488525390625,972.7717895507812,-
66,388.8822937011719,40.612117767333984,17.39898681640625,972.3328857421875,-
67,393.5901794433594,40.63396072387695,17.35321044921875,971.879150390625,-
68,397.79241943359375,40.769309997558594,17.311920166015625,971.4156494140625,-
69,401.8395690917969,40.96824645996094,17.271484375,970.9461669921875,-
70,406.0262756347656,41.120731353759766,17.237701416015625,970.474365234375,-
71,406.9005520136308,-,-,-,2.984837810000815e-07
72,410.3153076171875,41.22034454345703,17.20648193359375,970.001708984375,-
73,414.5537414550781,41.40131759643555,17.1614990234375,969.530029296875,-
74,418.55218505859375,41.6950798034668,17.162261962890625,969.0617065429688,-
75,422.4447937011719,41.838748931884766,17.150726318359375,968.5963745117188,-
76,426.3744201660156,41.875545501708984,17.11431884765625,968.1353759765625,-
77,430.3749084472656,41.92158508300781,17.07806396484375,967.67822265625,-
78,434.307861328125,41.90690612792969,17.04644775390625,967.2238159179688,-
79,436.78639362167826,-,-,-,2.7878716471012204e-07
80,438.0970764160156,41.86252212524414,17.002685546875,966.7711791992188,-
81,441.78204345703125,41.80223846435547,16.94189453125,966.3199462890625,-
82,445.44696044921875,41.91692352294922,16.8787841796875,965.8680419921875,-
83,449.4256591796875,42.20145034790039,16.846588134765625,965.4147338867188,-
84,453.44873046875,42.316375732421875,16.81134033203125,964.9620361328125,-
85,457.5922546386719,42.36818313598633,16.784271240234375,964.5127563476562,-
86,461.7124938964844,42.454811096191406,16.7471923828125,964.0692138671875,-
87,465.62384033203125,42.47049331665039,16.696258544921875,963.6326904296875,-
88,466.67223522972574,-,-,-,2.770210148977135e-07
89,469.2514953613281,42.49540328979492,16.6531982421875,963.2034912109375,-
90,472.9795837402344,42.6231575012207,16.61248779296875,962.7805786132812,-
91,476.7301330566406,42.7704963684082,16.575592041015625,962.3616943359375,-
92,480.3363952636719,42.85358428955078,16.542755126953125,961.9441528320312,-
93,483.70989990234375,42.8786506652832,16.50909423828125,961.52490234375,-
94,487.239501953125,42.92649841308594,16.470672607421875,961.1019287109375,-
95,491.2959899902344,43.03008270263672,16.426727294921875,960.67431640625,-
96,495.6648254394531,43.11858367919922,16.386749267578125,960.23974609375,-
97,496.5580768377732,-,-,-,2.987195612406209e-07
98,500.06170654296875,43.18147277832031,16.355133056640625,959.7974853515625,-
99,504.4477233886719,43.305274963378906,16.323944091796875,959.3489379882812,-
100,508.78131103515625,43.50666809082031,16.286041259765625,958.8965454101562,-
101,513.0140991210938,43.60607147216797,16.249359130859375,958.4410400390625,-
102,517.0659790039062,43.60102844238281,16.21343994140625,957.9822998046875,-
103,520.839599609375,43.545406341552734,16.177215576171875,957.5198364257812,-
104,524.4230346679688,43.51876449584961,16.13818359375,957.05029296875,-
105,526.4439184458207,-,-,-,3.126389984613195e-07
106,528.0960083007812,43.5587272644043,16.098785400390625,956.568603515625,-
107,531.96728515625,43.649837493896484,16.057891845703125,956.0692138671875,-
108,536.3673706054688,43.862876892089844,16.0115966796875,955.54931640625,-
109,541.64013671875,44.17417526245117,15.96356201171875,955.0098876953125,-
110,547.5166015625,44.47998809814453,15.91717529296875,954.4532470703125,-
111,553.1486206054688,44.62141418457031,15.860015869140625,953.8837890625,-
112,556.3297600538682,-,-,-,3.41240672801431e-07
113,558.2020874023438,44.58819580078125,15.81103515625,953.3067016601562,-
114,563.2802734375,44.586517333984375,15.75732421875,952.728271484375,-
115,568.7896118164062,44.80521774291992,15.70196533203125,952.1539916992188,-
116,574.2327880859375,45.10780334472656,15.651824951171875,951.5894165039062,-
117,578.98876953125,45.167720794677734,15.61279296875,951.0374145507812,-
118,583.2866821289062,45.10122299194336,15.572540283203125,950.4993286132812,-
119,586.2156016619157,-,-,-,3.6079890462505324e-07
120,587.6260986328125,45.13847732543945,15.537017822265625,949.9729614257812,-
121,591.9791870117188,45.27187728881836,15.501251220703125,949.4529418945312,-
122,596.3983764648438,45.466346740722656,15.465240478515625,948.9327392578125,-
123,600.8397827148438,45.627376556396484,15.412994384765625,948.406494140625,-
124,605.4352416992188,45.72659683227539,15.352996826171875,947.8704833984375,-
125,610.439453125,45.91676330566406,15.296356201171875,947.32177734375,-
126,616.041015625,46.29043960571289,15.248565673828125,946.76025390625,-
127,616.1014432699632,-,-,-,3.77283874994743e-07
128,622.0072021484375,46.55299758911133,15.2132568359375,946.190185546875,-
129,628.2274780273438,46.53043746948242,15.1669921875,945.61572265625,-
130,634.1675415039062,46.42409133911133,15.107025146484375,945.0431518554688,-
131,639.374755859375,46.40629196166992,15.046783447265625,944.4752197265625,-
132,643.7963256835938,46.5103874206543,15.01080322265625,943.9130859375,-
133,645.9872848780107,-,-,-,3.900467984996741e-07
134,648.0199584960938,46.66679382324219,14.954833984375,943.35400390625,-
135,652.4617309570312,47.03185272216797,14.89520263671875,942.7958984375,-
136,657.1653442382812,47.47239685058594,14.8497314453125,942.2359008789062,-
137,662.1099243164062,47.681304931640625,14.80352783203125,941.6701049804688,-
138,667.2633056640625,47.73827362060547,14.74920654296875,941.0973510742188,-
139,672.4444580078125,47.77857971191406,14.70123291015625,940.518310546875,-
140,675.8731264860581,-,-,-,4.0334538567151227e-07
141,677.9151000976562,47.921112060546875,14.65386962890625,939.9356689453125,-
142,683.7432250976562,48.08464431762695,14.59442138671875,939.3511962890625,-
143,689.3512573242188,48.16843032836914,14.546783447265625,938.7667236328125,-
144,694.472412109375,48.28440475463867,14.50555419921875,938.181884765625,-
145,699.609619140625,48.510833740234375,14.457794189453125,937.5927734375,-
146,705.1506958007812,48.6972541809082,14.409271240234375,936.9961547851562,-
147,705.7589680941056,-,-,-,4.13074297953369e-07
148,711.286865234375,48.84633255004883,14.352935791015625,936.3871459960938,-
149,717.6402587890625,48.906455993652344,14.295196533203125,935.7662963867188,-
150,723.8094482421875,48.899070739746094,14.233642578125,935.13720703125,-
151,729.5139770507812,48.95166015625,14.1737060546875,934.5054931640625,-
152,734.7576293945312,49.008174896240234,14.121978759765625,933.875732421875,-
153,735.6448097021531,-,-,-,4.1947117962095607e-07
154,739.8582153320312,49.05367660522461,14.075653076171875,933.2522583007812,-
155,745.1445922851562,49.15985107421875,14.02239990234375,932.6376953125,-
156,750.6036987304688,49.37423324584961,13.957855224609375,932.029296875,-
157,755.8616943359375,49.57406997680664,13.90283203125,931.4228515625,-
158,760.8823852539062,49.71515655517578,13.86090087890625,930.8148193359375,-
159,765.5306513102006,-,-,-,4.2853881926113947e-07
160,766.1878051757812,49.96925735473633,13.809356689453125,930.202392578125,-
161,772.0143432617188,50.30021286010742,13.7406005859375,929.5861206054688,-
162,777.91552734375,50.45466232299805,13.67999267578125,928.9696655273438,-
163,783.3871459960938,50.378631591796875,13.6400146484375,928.3582763671875,-
164,788.6331176757812,50.34082794189453,13.592132568359375,927.75830078125,-
165,793.867919921875,50.42704391479492,13.53118896484375,927.1719970703125,-
166,795.4164929182481,-,-,-,4.253324993009038e-07
167,799.113037109375,50.53044509887695,13.483001708984375,926.59912109375,-
168,804.2467041015625,50.73892593383788,13.434783935546875,926.0355834960938,-
169,809.4017944335938,51.03854751586914,13.3861083984375,925.47607421875,-
170,814.7145385742188,51.28913116455078,13.3350830078125,924.916259765625,-
171,820.0411376953125,51.449180603027344,13.27972412109375,924.3523559570312,-
172,825.2642822265625,51.52387619018555,13.234954833984375,923.7831420898438,-
173,825.3023345262956,-,-,-,4.391185506080578e-07
174,830.5138549804688,51.58592224121094,13.184478759765625,923.2091064453125,-
175,835.8200073242188,51.653038024902344,13.136260986328125,922.6318969726562,-
176,841.0618896484375,51.72553253173828,13.094085693359375,922.0518188476562,-
177,846.2318115234375,51.86978530883789,13.042877197265625,921.470703125,-
178,851.4442749023438,52.05847549438477,12.995574951171875,920.889404296875,-
179,855.188176134343,-,-,-,4.383065857331072e-07
180,856.698974609375,52.288230895996094,12.94500732421875,920.3090209960938,-
181,861.96630859375,52.56976318359376,12.886688232421875,919.7301635742188,-
182,867.3388671875,52.79426574707031,12.83062744140625,919.1514892578125,-
183,872.7892456054688,52.893245697021484,12.78045654296875,918.5734252929688,-
184,878.1754760742188,52.925212860107415,12.731658935546875,917.994140625,-
185,883.4127807617188,53.04845428466797,12.680084228515625,917.4122924804688,-
186,885.0740177423905,-,-,-,4.2744815964818706e-07
187,888.527587890625,53.29289627075195,12.627716064453125,916.825927734375,-
188,893.5792236328125,53.53579330444336,12.57720947265625,916.2323608398438,-
189,899.009033203125,53.79177856445313,12.519927978515625,915.6301879882812,-
190,905.008544921875,53.97691345214844,12.46514892578125,915.020751953125,-
191,911.4761352539062,54.13076400756837,12.40283203125,914.4093017578125,-
192,914.959859350438,-,-,-,4.329580844222342e-07
193,917.9365844726562,54.23620223999024,12.328125,913.8029174804688,-
194,923.8916015625,54.217582702636726,12.2716064453125,913.2096557617188,-
195,928.9993896484375,54.17817687988281,12.231903076171875,912.6334228515625,-
196,933.4307861328125,54.249847412109375,12.194793701171875,912.0735473632812,-
197,937.65283203125,54.5145378112793,12.14678955078125,911.5248413085938,-
198,942.0469970703125,54.86670303344726,12.099853515625,910.9805908203125,-
199,944.8457009584855,-,-,-,4.5508632734979025e-07
200,946.9284057617188,55.12812042236328,12.05450439453125,910.435546875,-
201,952.28857421875,55.265815734863274,12.00384521484375,909.8859252929688,-
202,957.7158203125,55.32710647583008,11.94970703125,909.3310546875,-
203,962.8540649414062,55.416168212890625,11.897064208984375,908.7725830078125,-
204,967.6680908203125,55.57656860351563,11.855316162109375,908.2125854492188,-
205,972.4953002929688,55.851219177246094,11.806365966796875,907.6516723632812,-
206,974.731542566533,-,-,-,4.6041234127385274e-07
207,977.5438232421875,56.189170837402344,11.748138427734375,907.0883178710938,-
208,982.890869140625,56.39419174194336,11.699615478515625,906.52001953125,-
209,988.6005859375,56.48476028442383,11.641815185546875,905.94580078125,-
210,994.5301513671875,56.51168060302735,11.585418701171875,905.365966796875,-
211,1000.173828125,56.461700439453125,11.541290283203125,904.7808227539062,-
212,1004.6173841745805,-,-,-,4.513996460594731e-07
213,1005.3847045898438,56.47091293334962,11.5078125,904.1931762695312,-
214,1010.4059448242188,56.70765686035156,11.449066162109375,903.606201171875,-
215,1015.7459716796875,57.11761474609375,11.379852294921875,903.0235595703125,-
216,1021.3411865234375,57.40339660644531,11.31793212890625,902.4478759765625,-
217,1026.820556640625,57.40880584716797,11.277618408203125,901.880126953125,-
218,1031.9815673828125,57.38994216918945,11.240936279296875,901.3215942382812,-
219,1034.5032257826279,-,-,-,4.524013103851097e-07
220,1037.0377197265625,57.580963134765625,11.182281494140625,900.7731323242188,-
221,1042.0435791015625,57.8657569885254,11.119232177734375,900.2339477539062,-
222,1046.8990478515625,58.07243728637695,11.07476806640625,899.7035522460938,-
223,1051.6954345703125,58.25383377075195,11.0322265625,899.1810913085938,-
224,1056.3685302734375,58.46945571899415,10.98272705078125,898.6660766601562,-
225,1060.7650146484375,58.63386154174805,10.944061279296875,898.1542358398438,-
226,1064.3890673906753,-,-,-,4.6862787916501453e-07
227,1064.941650390625,58.77103805541992,10.9056396484375,897.6394653320312,-
228,1069.254150390625,58.925987243652344,10.8619384765625,897.1162109375,-
229,1073.7816162109375,59.04635620117188,10.812835693359375,896.5810546875,-
230,1078.7579345703125,59.157081604003906,10.763153076171875,896.0292358398438,-
231,1084.3756103515625,59.34811401367187,10.704833984375,895.462158203125,-
232,1090.243896484375,59.53393554687501,10.652435302734375,894.8843383789062,-
233,1094.2749089987228,-,-,-,4.680957935915325e-07
234,1095.9019775390625,59.64849853515625,10.6123046875,894.3023071289062,-
235,1101.283203125,59.773155212402344,10.56396484375,893.7225341796875,-
236,1106.3970947265625,59.85297775268555,10.527862548828125,893.1500244140625,-
237,1111.4283447265625,59.94058227539063,10.482147216796875,892.5872192382812,-
238,1116.6328125,60.2374610900879,10.42718505859375,892.0364990234375,-
239,1121.8861083984375,60.53403854370117,10.38360595703125,891.4986572265625,-
240,1124.1607506067703,-,-,-,4.831593737199126e-07
241,1126.9932861328125,60.66193389892578,10.345733642578125,890.97314453125,-
242,1131.925537109375,60.840797424316406,10.2965087890625,890.4594116210938,-
243,1136.78857421875,61.10408020019531,10.248046875,889.958984375,-
244,1141.6341552734375,61.31207275390626,10.2099609375,889.470947265625,-
245,1146.482666015625,61.45185852050782,10.171966552734375,888.992919921875,-
246,1151.218017578125,61.60523223876954,10.135894775390625,888.5202026367188,-
247,1154.0465922148178,-,-,-,4.776001406018619e-07
248,1155.572021484375,61.74811553955079,10.096282958984375,888.048095703125,-
249,1159.7945556640625,61.864009857177734,10.05413818359375,887.5692138671875,-
250,1164.198974609375,61.98908996582031,10.003692626953125,887.0808715820312,-
251,1168.6331787109375,62.08578109741211,9.95635986328125,886.582763671875,-
252,1173.1776123046875,62.19116973876954,9.904571533203125,886.0773315429688,-
253,1177.859130859375,62.292045593261726,9.8441162109375,885.5697631835938,-
254,1182.5601806640625,62.41276550292969,9.790252685546875,885.0651245117188,-
255,1183.9324338228653,-,-,-,4.999089567574453e-07
256,1187.1824951171875,62.50314712524414,9.747802734375,884.5687866210938,-
257,1191.4976806640625,62.5916862487793,9.706329345703125,884.0849609375,-
258,1195.4071044921875,62.78886032104493,9.664520263671875,883.6171875,-
259,1199.0408935546875,63.004756927490234,9.619781494140625,883.165771484375,-
260,1202.458251953125,63.11537170410156,9.585906982421875,882.729248046875,-
261,1205.91552734375,63.18049621582031,9.556671142578125,882.3054809570312,-
262,1209.62890625,63.35958862304688,9.51763916015625,881.8895263671875,-
263,1213.7037353515625,63.61603164672852,9.480316162109375,881.4781494140625,-
264,1213.8182754309128,-,-,-,4.986532188200469e-07
265,1218.0115966796875,63.88211822509766,9.44476318359375,881.069091796875,-
266,1222.5244140625,64.12653350830078,9.4171142578125,880.6607055664062,-
267,1226.96533203125,64.3720703125,9.37835693359375,880.2508544921875,-
268,1230.7955322265625,64.55768585205078,9.333984375,879.8388061523438,-
269,1234.3497314453125,64.5622787475586,9.292266845703125,879.423828125,-
270,1238.3385009765625,64.4594955444336,9.2440185546875,879.0062866210938,-
271,1242.61474609375,64.3002700805664,9.201812744140625,878.5891723632812,-
272,1243.7041170389602,-,-,-,5.049401379185576e-07
