,alt,rh,temp,pressure,att_bsc
0,151.73187255859375,62.0,20.399993896484375,999.7456665039062,-
1,154.5771484375,63.01496124267578,20.434967041015625,999.3720703125,-
2,159.6407470703125,61.14079666137695,20.675933837890625,998.7864990234375,-
3,164.97140502929688,60.336212158203125,20.802886962890625,998.1434936523438,-
4,167.8138191492509,-,-,-,2.3832015181695353e-07
5,170.67835998535156,59.797325134277344,20.761260986328125,997.404541015625,-
6,176.4617919921875,58.9634895324707,20.78472900390625,996.7720947265625,-
7,182.19134521484375,57.95016098022461,20.899932861328125,996.2042236328125,-
8,188.12750244140625,57.26079559326172,21.0645751953125,995.4740600585938,-
9,194.20620727539062,57.36030197143555,21.05126953125,994.7999877929688,-
10,197.69966075729837,-,-,-,2.042715237414377e-07
11,199.99806213378906,58.06144714355469,20.863067626953125,994.1136474609375,-
12,205.7498779296875,58.54620361328126,20.703765869140625,993.4161376953125,-
13,211.3252410888672,58.34887695312501,20.69000244140625,992.7088012695312,-
14,216.95021057128906,57.832611083984375,20.691680908203125,991.9931030273438,-
15,223.0027313232422,57.03004837036133,20.787200927734375,991.2728881835938,-
16,227.58550236534586,-,-,-,2.353837070342364e-07
17,229.48141479492188,56.338680267333984,20.849639892578125,990.5546875,-
18,236.1569366455078,56.052974700927734,20.85931396484375,989.8467407226562,-
19,242.85316467285156,55.83687210083008,20.860107421875,989.1577758789062,-
20,249.1212921142578,55.576305389404304,20.924530029296875,988.4952392578125,-
21,254.3731689453125,55.57512283325195,20.84027099609375,987.8583984375,-
22,257.47134397339335,-,-,-,4.4699881499554673e-07
23,258.89935302734375,55.512306213378906,20.76177978515625,987.2440795898438,-
24,263.3473815917969,54.989330291748054,20.866455078125,986.64404296875,-
25,268.3493347167969,54.321544647216804,20.986785888671875,986.0531005859375,-
26,273.9074401855469,53.94639205932618,21.032196044921875,985.4663696289062,-
27,279.22882080078125,54.01148986816406,20.997802734375,984.8792114257812,-
28,283.80743408203125,54.323905944824226,20.92987060546875,984.2886962890625,-
29,287.35718558144083,-,-,-,4.5332863213264156e-07
30,288.31695556640625,54.67752838134766,20.864349365234375,983.6934204101562,-
31,293.5728759765625,54.70962905883789,20.8265380859375,983.0927734375,-
32,299.306640625,54.1309814453125,20.84600830078125,982.4872436523438,-
33,304.8972473144531,53.26794815063477,21.044158935546875,981.8775634765625,-
34,310.2707824707031,52.631832122802734,21.177032470703125,981.2647705078125,-
35,315.71795654296875,52.318397521972656,21.218536376953125,980.6500854492188,-
36,317.2430271894883,-,-,-,3.7632810888494323e-07
37,321.23382568359375,52.29258728027344,21.199676513671875,980.0331420898438,-
38,326.3923034667969,52.37949371337891,21.151123046875,979.4144287109375,-
39,331.10223388671875,52.457698822021484,21.104095458984375,978.79638671875,-
40,335.96502685546875,52.63094329833985,21.068115234375,978.1798095703125,-
41,341.32684326171875,52.8323974609375,21.021026611328125,977.56640625,-
42,347.01190185546875,52.943695068359375,20.971343994140625,976.95556640625,-
43,347.1288687975358,-,-,-,3.375371631983589e-07
44,352.72772216796875,53.071224212646484,20.93634033203125,976.3484497070312,-
45,358.2184143066406,53.20347213745117,20.925201416015625,975.7466430664062,-
46,363.3984680175781,53.23674774169922,20.899993896484375,975.1492919921875,-
47,368.608642578125,53.29215621948242,20.89617919921875,974.5559692382812,-
48,373.9839172363281,53.37423706054688,20.87548828125,973.9656372070312,-
49,377.0147104055833,-,-,-,3.203491917523863e-07
50,379.5076599121094,53.40806579589844,20.853607177734375,973.3795776367188,-
51,384.94769287109375,53.40649414062501,20.845245361328125,972.7984008789062,-
52,389.937744140625,53.42060852050782,20.798919677734375,972.2196655273438,-
53,394.281982421875,53.50065612792969,20.75341796875,971.6372680664062,-
54,398.52099609375,53.677608489990234,20.67987060546875,971.0430908203125,-
55,403.41326904296875,53.90145492553711,20.6552734375,970.427734375,-
56,406.9005520136308,-,-,-,2.953870711790773e-07
57,409.2408447265625,54.0745964050293,20.637664794921875,969.7861938476562,-
58,415.81158447265625,54.23317337036133,20.614410400390625,969.1212158203125,-
59,422.7122497558594,54.37128448486328,20.581024169921875,968.4407958984375,-
60,429.38623046875,54.47863006591797,20.520233154296875,967.7577514648438,-
61,435.6512145996094,54.63142013549805,20.4488525390625,967.0843505859375,-
62,436.78639362167826,-,-,-,2.661298975292865e-07
63,441.4612121582031,54.79346466064453,20.39404296875,966.43017578125,-
64,446.7939453125,54.85865783691406,20.35931396484375,965.7988891601562,-
65,451.814453125,54.882957458496094,20.32318115234375,965.1884155273438,-
66,456.8594970703125,54.9466209411621,20.303558349609375,964.5938720703125,-
67,462.16259765625,55.046104431152344,20.274749755859375,964.0087890625,-
68,466.67223522972574,-,-,-,2.658564572788137e-07
69,467.5382080078125,55.17402648925781,20.2177734375,963.42724609375,-
70,472.6402587890625,55.278011322021484,20.187591552734375,962.8435668945312,-
71,477.49359130859375,55.35032272338868,20.1575927734375,962.2529296875,-
72,482.3536376953125,55.54185104370117,20.121429443359375,961.6515502929688,-
73,487.71795654296875,55.80483245849609,20.07440185546875,961.0382080078125,-
74,493.8138427734375,55.929874420166016,20.014678955078125,960.4138793945312,-
75,496.5580768377732,-,-,-,2.833241235392795e-07
76,500.3563232421875,55.99416732788086,19.949615478515625,959.7811279296875,-
77,506.70538330078125,56.06552505493164,19.886749267578125,959.1458129882812,-
78,512.41259765625,56.14076614379883,19.83477783203125,958.5108032226562,-
79,517.6556396484375,56.296772003173835,19.789459228515625,957.8786010742188,-
80,522.7073364257812,56.52705383300781,19.747222900390625,957.250732421875,-
81,526.4439184458207,-,-,-,3.023828905821141e-07
82,527.9342651367188,56.70292282104492,19.702239990234375,956.627685546875,-
83,533.5072021484375,56.83295440673828,19.65252685546875,956.0082397460938,-
84,539.2073974609375,56.98440551757813,19.598876953125,955.3920288085938,-
85,544.8439331054688,57.068077087402344,19.54827880859375,954.7776489257812,-
86,550.3113403320312,57.190746307373054,19.501251220703125,954.1637573242188,-
87,555.505126953125,57.41500473022461,19.4520263671875,953.5484619140625,-
88,556.3297600538682,-,-,-,3.255419242621907e-07
89,560.6304931640625,57.62605285644531,19.400665283203125,952.9296264648438,-
90,565.9891357421875,57.74587631225586,19.351287841796875,952.306396484375,-
91,571.7720336914062,57.853973388671875,19.298919677734375,951.6788330078125,-
92,578.0245971679688,58.04392623901368,19.240509033203125,951.0485229492188,-
93,584.5555419921875,58.20673370361328,19.18133544921875,950.4185791015625,-
94,586.2156016619157,-,-,-,3.467931570602928e-07
95,590.91552734375,58.3077621459961,19.124603271484375,949.7945556640625,-
96,596.7669067382812,58.43399047851563,19.070404052734375,949.1814575195312,-
97,601.8788452148438,58.59529113769531,19.02215576171875,948.580810546875,-
98,606.4127197265625,58.72160720825196,18.981414794921875,947.9906005859375,-
99,610.8648681640625,58.911678314208984,18.94598388671875,947.4066772460938,-
100,615.801025390625,59.162620544433594,18.905364990234375,946.82373046875,-
101,616.1014432699632,-,-,-,3.577367509814323e-07
102,621.2615356445312,59.330848693847656,18.856170654296875,946.2360229492188,-
103,626.7909545898438,59.393661499023445,18.80181884765625,945.6444702148438,-
104,632.0684814453125,59.491050720214844,18.749755859375,945.05126953125,-
105,637.2131958007812,59.62845993041992,18.696868896484375,944.4595947265625,-
106,642.3449096679688,59.75274276733399,18.647857666015625,943.8713989257812,-
107,645.9872848780107,-,-,-,3.6717674477775415e-07
108,647.5614624023438,59.862266540527344,18.602081298828125,943.28662109375,-
109,652.9319458007812,59.996665954589844,18.557586669921875,942.7039794921875,-
110,658.4764404296875,60.15340805053712,18.506500244140625,942.1229248046875,-
111,664.0842895507812,60.313507080078125,18.45550537109375,941.5440673828125,-
112,669.6942138671875,60.49494171142579,18.407684326171875,940.9671020507812,-
113,675.1998291015625,60.69342803955078,18.35882568359375,940.3935546875,-
114,675.8731264860581,-,-,-,3.798353965116908e-07
115,680.3582153320312,60.8612174987793,18.311279296875,939.8248291015625,-
116,685.187744140625,60.96369171142578,18.26312255859375,939.2593994140625,-
117,690.1294555664062,61.03827667236328,18.21197509765625,938.6962280273438,-
118,695.2716674804688,61.15781784057618,18.161102294921875,938.1329345703125,-
119,700.678955078125,61.30221557617188,18.11114501953125,937.5685424804688,-
120,705.7589680941056,-,-,-,3.8743094401616415e-07
121,706.3350830078125,61.48444747924805,18.058868408203125,937.001220703125,-
122,712.1974487304688,61.68414306640625,18.00384521484375,936.4310302734375,-
123,717.7569580078125,61.85947799682617,17.953704833984375,935.8602905273438,-
124,723.0269165039062,62.02561569213867,17.9053955078125,935.2904052734375,-
125,728.1882934570312,62.259029388427734,17.8555908203125,934.7222290039062,-
126,733.2275390625,62.40995407104493,17.803863525390625,934.1565551757812,-
127,735.6448097021531,-,-,-,3.8532985520005613e-07
128,738.0857543945312,62.449073791503906,17.760223388671875,933.5922241210938,-
129,742.962158203125,62.50722885131837,17.716644287109375,933.0286254882812,-
130,748.0730590820312,62.645561218261726,17.67254638671875,932.4666137695312,-
131,753.5425415039062,62.86008071899414,17.62353515625,931.9071044921875,-
132,758.8733520507812,63.023277282714844,17.57598876953125,931.350341796875,-
133,763.9439697265625,63.174434661865234,17.530242919921875,930.7987670898438,-
134,765.5306513102006,-,-,-,3.9362304131845254e-07
135,768.8922119140625,63.35993576049804,17.486358642578125,930.2520751953125,-
136,773.7906494140625,63.52568817138672,17.43994140625,929.7088012695312,-
137,778.3977661132812,63.61018753051758,17.393524169921875,929.1668090820312,-
138,782.8382568359375,63.68466186523437,17.35333251953125,928.6229858398438,-
139,787.55224609375,63.848445892333984,17.318115234375,928.0750122070312,-
140,792.6928100585938,64.07159423828125,17.275390625,927.520263671875,-
141,795.4164929182481,-,-,-,3.9227142917356483e-07
142,798.1475830078125,64.29108428955078,17.229736328125,926.95703125,-
143,803.765625,64.48268127441406,17.1859130859375,926.3857421875,-
144,809.1904907226562,64.68829345703125,17.13916015625,925.8046875,-
145,814.302490234375,64.84632873535156,17.089447021484375,925.21240234375,-
146,819.51416015625,64.97213745117188,17.045440673828125,924.6064453125,-
147,824.9789428710938,65.10442352294922,16.993896484375,923.9837036132812,-
148,825.3023345262956,-,-,-,3.957206843822719e-07
149,830.76806640625,65.24835968017578,16.94378662109375,923.3432006835938,-
150,837.3146362304688,65.46730041503906,16.880126953125,922.6864013671875,-
151,844.5438232421875,65.70174407958984,16.815887451171875,922.0173950195312,-
152,851.6752319335938,65.88507843017578,16.7554931640625,921.343017578125,-
153,855.188176134343,-,-,-,3.89157729326216e-07
154,858.1416625976562,65.96566772460938,16.695587158203125,920.669189453125,-
155,864.2395629882812,66.10295867919922,16.647918701171875,920.0001220703125,-
156,870.1846313476562,66.37999725341797,16.59271240234375,919.3392333984375,-
157,876.154296875,66.61367797851562,16.54156494140625,918.6893920898438,-
158,882.19189453125,66.775390625,16.48974609375,918.0512084960938,-
159,885.0740177423905,-,-,-,3.8802416535749796e-07
160,887.962158203125,66.86651611328125,16.4244384765625,917.4246215820312,-
161,893.3731689453125,66.92972564697266,16.36749267578125,916.8068237304688,-
162,898.8592529296875,67.15682983398438,16.320159912109375,916.1953735351562,-
163,904.3211059570312,67.5213851928711,16.26422119140625,915.5859375,-
164,909.7116088867188,67.82701110839844,16.209869384765625,914.9765014648438,-
165,914.959859350438,-,-,-,3.826971071939858e-07
166,915.3119506835938,68.04521179199219,16.154754638671875,914.364501953125,-
167,921.0842895507812,68.17093658447266,16.102783203125,913.7479248046875,-
168,926.9201049804688,68.28206634521484,16.058685302734375,913.1239624023438,-
169,932.9571533203125,68.4908447265625,16.010223388671875,912.4896240234375,-
170,939.241943359375,68.69950866699219,15.959686279296875,911.8444213867188,-
171,944.8457009584855,-,-,-,3.7624927547569774e-07
172,945.806884765625,68.90034484863281,15.90185546875,911.1900634765625,-
173,952.5642700195312,69.12805938720703,15.83892822265625,910.5310668945312,-
174,959.2490844726562,69.35877990722656,15.776641845703125,909.8742065429688,-
175,965.5399780273438,69.53131866455078,15.7181396484375,909.22509765625,-
176,971.3038940429688,69.61336517333984,15.67047119140625,908.5888061523438,-
177,974.731542566533,-,-,-,3.7145748313378276e-07
178,976.7640991210938,69.720947265625,15.63177490234375,907.96923828125,-
179,982.1355590820312,69.9658203125,15.58709716796875,907.3659057617188,-
180,987.4829711914062,70.25830841064453,15.53912353515625,906.7772827148438,-
181,992.6642456054688,70.48611450195312,15.49078369140625,906.200439453125,-
182,997.8416137695312,70.6284408569336,15.45404052734375,905.6318969726562,-
183,1003.2100219726562,70.71681213378906,15.414642333984375,905.0693969726562,-
184,1004.6173841745805,-,-,-,3.819192449304282e-07
185,1008.6575927734375,70.82723999023438,15.365478515625,904.5098266601562,-
186,1013.9360961914062,70.92898559570312,15.316070556640625,903.9521484375,-
187,1019.1376342773438,71.06513977050781,15.265228271484375,903.3958129882812,-
188,1024.323486328125,71.25399017333984,15.2119140625,902.8419799804688,-
189,1029.4306640625,71.46884155273438,15.1614990234375,902.2938842773438,-
190,1034.3524169921875,71.69615173339844,15.111846923828125,901.7522583007812,-
191,1034.5032257826279,-,-,-,3.818057556816182e-07
192,1039.10791015625,71.94004821777344,15.076202392578125,901.2164916992188,-
193,1044.0321044921875,72.23200225830078,15.034820556640625,900.6859741210938,-
194,1049.3104248046875,72.4957275390625,14.9918212890625,900.1589965820312,-
195,1054.521484375,72.62288665771484,14.94317626953125,899.6327514648438,-
196,1059.5179443359375,72.63219451904297,14.89801025390625,899.1062622070312,-
197,1064.3890673906753,-,-,-,3.746678547732424e-07
198,1064.501220703125,72.68602752685547,14.85723876953125,898.57666015625,-
199,1069.600830078125,72.89202117919922,14.80731201171875,898.0420532226562,-
200,1074.8560791015625,73.14897918701172,14.754302978515625,897.5015258789062,-
201,1080.1707763671875,73.37552642822266,14.701812744140625,896.9552612304688,-
202,1085.311279296875,73.60240173339844,14.652191162109375,896.4051513671875,-
203,1090.267578125,73.91356658935547,14.605072021484375,895.8528442382812,-
204,1094.2749089987228,-,-,-,3.8729663910476206e-07
205,1095.3336181640625,74.25111389160156,14.560211181640625,895.3001098632812,-
206,1100.6287841796875,74.4865493774414,14.511260986328125,894.7476806640625,-
207,1106.007080078125,74.6357192993164,14.456573486328125,894.196533203125,-
208,1111.334228515625,74.81806182861328,14.404296875,893.64794921875,-
209,1116.507568359375,75.05339050292969,14.351593017578125,893.1024780273438,-
210,1121.522216796875,75.27648162841797,14.304931640625,892.5598754882812,-
211,1124.1607506067703,-,-,-,3.811352798758184e-07
212,1126.5047607421875,75.49817657470703,14.26153564453125,892.0196533203125,-
213,1131.5831298828125,75.71276092529297,14.218780517578125,891.4810180664062,-
214,1136.599365234375,75.82886505126953,14.174346923828125,890.9423217773438,-
215,1141.62109375,75.90421295166016,14.132049560546875,890.4022827148438,-
216,1146.8074951171875,76.07958984375,14.084747314453125,889.85888671875,-
217,1151.997314453125,76.33636474609375,14.036834716796875,889.3102416992188,-
218,1154.0465922148178,-,-,-,3.7199426415551275e-07
219,1157.0784912109375,76.5490951538086,13.98663330078125,888.756591796875,-
220,1162.349609375,76.82427978515625,13.952850341796875,888.1984252929688,-
221,1167.8905029296875,77.13186645507812,13.918701171875,887.6362915039062,-
222,1173.3814697265625,77.3300552368164,13.87139892578125,887.0714721679688,-
223,1178.8138427734375,77.49784088134766,13.820892333984375,886.505615234375,-
224,1183.9324338228653,-,-,-,3.7130181314164377e-07
225,1184.38916015625,77.74374389648438,13.76947021484375,885.9400634765625,-
226,1189.9656982421875,77.95111083984375,13.71527099609375,885.376953125,-
227,1195.4090576171875,77.98402404785156,13.661956787109375,884.8176879882812,-
228,1200.8106689453125,77.99627685546875,13.61114501953125,884.26220703125,-
229,1206.0653076171875,78.04652404785156,13.5616455078125,883.708984375,-
230,1211.1640625,78.13597106933594,13.521270751953125,883.15673828125,-
231,1213.8182754309128,-,-,-,3.6233827668310125e-07
232,1216.29150390625,78.29325103759766,13.47869873046875,882.6032104492188,-
233,1221.5396728515625,78.4378662109375,13.450469970703125,882.0474853515625,-
234,1226.7735595703125,78.56033325195312,13.41790771484375,881.4893188476562,-
235,1232.0443115234375,78.63935852050781,13.378875732421875,880.9306030273438,-
236,1237.5018310546875,78.72860717773438,13.335693359375,880.3721923828125,-
237,1243.068359375,78.80484008789062,13.2943115234375,879.8162841796875,-
238,1243.7041170389602,-,-,-,3.5876453880358557e-07
239,1248.4761962890625,78.80181121826172,13.252685546875,879.2650146484375,-
240,1253.4471435546875,78.69854736328125,13.220611572265625,878.7177124023438,-
241,1258.0443115234375,78.6678466796875,13.20086669921875,878.1725463867188,-
242,1262.7725830078125,78.85294342041016,13.166534423828125,877.6251831054688,-
243,1267.93603515625,79.07787322998047,13.121856689453125,877.0703125,-
244,1273.4307861328125,79.26445007324219,13.0755615234375,876.506103515625,-
245,1273.5899586470077,-,-,-,3.4608052504779377e-07
246,1279.1239013671875,79.48490905761719,13.0234375,875.9321899414062,-
247,1284.8546142578125,79.65335845947266,12.970794677734375,875.3502197265625,-
248,1290.6104736328125,79.73707580566406,12.923248291015625,874.7625122070312,-
249,1296.498046875,79.89213562011719,12.876922607421875,874.1725463867188,-
250,1302.4952392578125,80.14915466308594,12.83026123046875,873.5813598632812,-
251,1303.4758002550552,-,-,-,3.378776868478322e-07
252,1308.3057861328125,80.38017272949219,12.77911376953125,872.9906005859375,-
253,1313.8477783203125,80.58080291748047,12.73260498046875,872.3995361328125,-
254,1319.3741455078125,80.90113830566406,12.69775390625,871.8077392578125,-
255,1324.879638671875,81.28593444824219,12.65130615234375,871.2141723632812,-
256,1330.3604736328125,81.55107879638672,12.600555419921875,870.6183471679688,-
257,1333.3616418631027,-,-,-,3.265516440183868e-07
258,1336.0052490234375,81.76239776611328,12.54449462890625,870.0224609375,-
259,1341.8060302734375,81.90398406982422,12.489532470703125,869.429443359375,-
260,1347.843994140625,82.01998138427734,12.434326171875,868.8450927734375,-
261,1353.8782958984375,82.16881561279297,12.38397216796875,868.2749633789062,-
262,1359.42431640625,82.2628173828125,12.342529296875,867.7200927734375,-
263,1363.2474834711502,-,-,-,3.027671329409945e-07
264,1364.295166015625,82.24403381347656,12.31072998046875,867.1797485351562,-
265,1368.6922607421875,82.36672973632812,12.292633056640625,866.6497802734375,-
266,1372.994140625,82.80685424804688,12.29296875,866.124267578125,-
267,1377.505615234375,83.29148864746094,12.270477294921875,865.59765625,-
268,1382.16748046875,83.55228424072266,12.225555419921875,865.0658569335938,-
269,1386.995361328125,83.71763610839844,12.179290771484375,864.5248413085938,-
270,1392.07763671875,84.01272583007812,12.140869140625,863.9716186523438,-
271,1393.1333250791977,-,-,-,2.58558591203298e-07
272,1397.4627685546875,84.4471664428711,12.1041259765625,863.4043579101562,-
273,1403.1358642578125,84.86929321289062,12.074493408203125,862.8241577148438,-
