,alt,rh,temp,pressure,att_bsc
0,155.71705627441406,89.3378677368164,1.132415771484375,1006.3927001953125,-
1,160.78692626953125,89.3112564086914,0.9716796875,1005.6364135742188,-
2,166.2225799560547,88.72294616699219,0.928192138671875,1004.948486328125,-
3,167.8138191492509,-,-,-,1.0477291102348141e-06
4,171.7336883544922,87.68419647216797,0.906036376953125,1004.1842041015625,-
5,177.4735565185547,86.7546615600586,0.885833740234375,1003.6029052734375,-
6,183.58847045898438,85.9804916381836,0.8594970703125,1002.9544677734375,-
7,189.8970489501953,85.37387084960938,0.833892822265625,1002.3231201171875,-
8,195.7617950439453,85.15797424316406,0.79901123046875,1001.6964111328125,-
9,197.69966075729837,-,-,-,8.687494800917089e-07
10,200.528076171875,85.18360137939453,0.767059326171875,1001.074951171875,-
11,204.67701721191406,85.16971588134766,0.72412109375,1000.4560546875,-
12,208.7520751953125,84.96623229980469,0.69757080078125,999.8359985351562,-
13,213.13558959960938,84.89019012451172,0.66375732421875,999.2151489257812,-
14,217.86886596679688,85.12114715576172,0.61175537109375,998.5943603515625,-
15,222.838623046875,85.57662200927734,0.563568115234375,997.9757080078125,-
16,227.58550236534586,-,-,-,9.274928009541269e-07
17,228.21932983398438,86.07281494140625,0.50653076171875,997.3595581054688,-
18,233.96910095214844,86.27954864501953,0.445953369140625,996.741943359375,-
19,239.47418212890625,86.18452453613281,0.403656005859375,996.1183471679688,-
20,244.29901123046875,86.27364349365234,0.37945556640625,995.4830322265625,-
21,248.71469116210938,86.85490417480469,0.334930419921875,994.8284912109375,-
22,253.9296417236328,87.6455307006836,0.258697509765625,994.1510009765625,-
23,257.47134397339335,-,-,-,1.2844596400398979e-06
24,260.1922912597656,88.19698333740234,0.188507080078125,993.451904296875,-
25,267.0379943847656,88.53018951416016,0.124481201171875,992.7374877929688,-
26,273.8145751953125,88.74407196044922,0.0592041015625,992.0159301757812,-
27,279.88232421875,88.86937713623047,0.002655029296875,991.2958984375,-
28,285.16363525390625,89.02210998535156,-0.041229248046875,990.5835571289062,-
29,287.35718558144083,-,-,-,1.1820872010288209e-06
30,290.1986389160156,89.13036346435547,-0.076019287109375,989.8853759765625,-
31,295.0865173339844,89.04891967773438,-0.1226806640625,989.2049560546875,-
32,299.85107421875,88.9207992553711,-0.17303466796875,988.5452880859375,-
33,304.5049743652344,89.03914642333984,-0.22271728515625,987.908447265625,-
34,309.0159606933594,89.36566925048828,-0.265899658203125,987.2922973632812,-
35,313.5070495605469,89.49748992919922,-0.297943115234375,986.690673828125,-
36,317.2430271894883,-,-,-,9.820405199907213e-07
37,318.0609130859375,89.41413879394531,-0.3255615234375,986.0928344726562,-
38,322.84423828125,89.4240951538086,-0.348724365234375,985.4871826171875,-
39,327.91650390625,89.67282104492188,-0.3792724609375,984.8656616210938,-
40,333.2593688964844,89.96199035644531,-0.430419921875,984.2225952148438,-
41,338.5449523925781,90.11225128173828,-0.484619140625,983.5567016601562,-
42,343.9324951171875,90.38241577148438,-0.539825439453125,982.8736572265625,-
43,347.1288687975358,-,-,-,7.436598373954463e-07
44,349.8329162597656,90.98979187011719,-0.5921630859375,982.1836547851562,-
45,356.3643798828125,91.71941375732422,-0.659454345703125,981.5004272460938,-
46,363.0877990722656,92.15931701660156,-0.734466552734375,980.83642578125,-
47,369.03607177734375,92.2621841430664,-0.79681396484375,980.2013549804688,-
48,373.5381774902344,92.4018783569336,-0.8458251953125,979.5971069335938,-
49,377.0147104055833,-,-,-,5.512951911419447e-07
50,377.1091613769531,92.7313003540039,-0.8861083984375,979.0178833007812,-
51,380.7066955566406,92.80838775634766,-0.92156982421875,978.4525146484375,-
52,384.9185791015625,92.32476043701172,-0.943634033203125,977.8886108398438,-
53,389.7202453613281,91.66419982910156,-0.937591552734375,977.3184204101562,-
54,394.521484375,91.5135269165039,-0.957305908203125,976.7360229492188,-
55,399.0816650390625,91.79872131347656,-1.014434814453125,976.1387939453125,-
56,403.7815246582031,92.24560546875,-1.05963134765625,975.526611328125,-
57,406.9005520136308,-,-,-,3.6495230033853766e-07
58,408.9748840332031,92.90567016601562,-1.10369873046875,974.9034423828125,-
59,414.59808349609375,93.50824737548828,-1.172821044921875,974.277099609375,-
60,420.3270263671875,93.66631317138672,-1.247283935546875,973.65625,-
61,425.6512756347656,93.4278335571289,-1.30303955078125,973.046630859375,-
62,430.4844665527344,92.91244506835938,-1.34063720703125,972.44873046875,-
63,435.1091003417969,91.7661361694336,-1.37237548828125,971.85791015625,-
64,436.78639362167826,-,-,-,2.5679259165353646e-07
65,439.704833984375,89.1825942993164,-1.263763427734375,971.2664794921875,-
66,444.5335998535156,86.43414306640625,-1.126556396484375,970.67138671875,-
67,449.6486511230469,84.14176177978516,-1.05316162109375,970.0731201171875,-
68,454.943603515625,81.49871826171875,-1.00579833984375,969.4764404296875,-
69,460.2030944824219,77.65592193603516,-0.849853515625,968.8895263671875,-
70,465.0649719238281,73.13223266601562,-0.5467529296875,968.3187255859375,-
71,466.67223522972574,-,-,-,2.2186548308799504e-07
72,469.4124755859375,70.94480895996094,-0.431915283203125,967.7697143554688,-
73,473.4326477050781,71.13617706298828,-0.473419189453125,967.2440185546875,-
74,477.0259704589844,71.70497131347656,-0.522216796875,966.7378540039062,-
75,480.26641845703125,71.9660415649414,-0.550384521484375,966.2429809570312,-
76,483.762451171875,72.20867156982422,-0.5755615234375,965.7491455078125,-
77,487.9472351074219,72.4427490234375,-0.612457275390625,965.2459716796875,-
78,492.5462646484375,72.37899017333984,-0.648101806640625,964.7280883789062,-
79,496.5580768377732,-,-,-,2.2458585550935278e-07
80,497.1461181640625,71.95901489257812,-0.658203125,964.1928100585938,-
81,501.8001708984375,71.57176208496094,-0.633697509765625,963.640380859375,-
82,506.5768737792969,71.51565551757812,-0.645263671875,963.0729370117188,-
83,511.4418640136719,71.64653778076172,-0.683807373046875,962.4939575195312,-
84,516.375,71.79969787597656,-0.730621337890625,961.9083862304688,-
85,521.1480102539062,71.96843719482422,-0.781463623046875,961.3207397460938,-
86,525.711181640625,72.07451629638672,-0.82867431640625,960.7352905273438,-
87,526.4439184458207,-,-,-,2.3625704178872758e-07
88,530.396240234375,72.15736389160156,-0.870758056640625,960.1555786132812,-
89,535.2960815429688,72.37675476074219,-0.912445068359375,959.5835571289062,-
90,540.2152099609375,72.60311889648438,-0.954620361328125,959.0215454101562,-
91,544.876220703125,72.6429443359375,-0.989532470703125,958.4691772460938,-
92,549.2568359375,72.61406707763672,-1.023406982421875,957.9244995117188,-
93,553.5458374023438,72.68611145019531,-1.055023193359375,957.3818969726562,-
94,556.3297600538682,-,-,-,2.555699035372738e-07
95,557.7030029296875,72.7685546875,-1.0911865234375,956.8340454101562,-
96,561.80859375,72.7193374633789,-1.110076904296875,956.27294921875,-
97,566.1898193359375,72.75374603271484,-1.121429443359375,955.6919555664062,-
98,571.0940551757812,73.01596069335938,-1.15191650390625,955.08984375,-
99,576.448974609375,73.33185577392578,-1.204437255859375,954.471923828125,-
100,582.0804443359375,73.5576171875,-1.26641845703125,953.8465576171875,-
101,586.2156016619157,-,-,-,2.7236288119076903e-07
102,587.6644287109375,73.67499542236328,-1.327392578125,953.2247924804688,-
103,592.8927612304688,73.70006561279297,-1.379913330078125,952.6178588867188,-
104,597.607421875,73.82879638671875,-1.42254638671875,952.033447265625,-
105,602.0157470703125,74.22260284423828,-1.46453857421875,951.4735107421875,-
106,606.3702392578125,74.64324188232422,-1.50445556640625,950.9347534179688,-
107,610.7249755859375,74.7907943725586,-1.546966552734375,950.4103393554688,-
108,614.9314575195312,74.82856750488281,-1.589080810546875,949.8935546875,-
109,616.1014432699632,-,-,-,2.8701983692839356e-07
110,619.0281372070312,75.05416107177734,-1.63037109375,949.3753662109375,-
111,623.0098266601562,75.37647247314453,-1.6700439453125,948.8494262695312,-
112,627.216552734375,75.50106811523438,-1.708648681640625,948.3129272460938,-
113,631.918212890625,75.46524047851562,-1.737396240234375,947.765869140625,-
114,636.9063720703125,75.48323822021484,-1.77813720703125,947.2124633789062,-
115,641.7515869140625,75.58657836914062,-1.823944091796875,946.6568603515625,-
116,645.9872848780107,-,-,-,2.96639698177598e-07
117,646.5003662109375,75.86930847167969,-1.866455078125,946.1038208007812,-
118,651.0963134765625,76.23993682861328,-1.91912841796875,945.5580444335938,-
119,655.4400024414062,76.41569519042969,-1.966400146484375,945.0232543945312,-
120,659.728759765625,76.3917007446289,-2.007537841796875,944.498779296875,-
121,664.1903686523438,76.3536376953125,-2.0462646484375,943.9822998046875,-
122,668.6514892578125,76.38553619384766,-2.077667236328125,943.47216796875,-
123,672.963623046875,76.45999908447266,-2.103057861328125,942.9660034179688,-
124,675.8731264860581,-,-,-,3.1104380799235156e-07
125,677.3067016601562,76.57617950439453,-2.137115478515625,942.461669921875,-
126,681.451416015625,76.65910339355469,-2.173675537109375,941.9584350585938,-
127,685.1476440429688,76.61631774902344,-2.200836181640625,941.4561157226562,-
128,688.8362426757812,76.76292419433594,-2.22314453125,940.9546508789062,-
129,692.8795166015625,77.14945220947266,-2.262786865234375,940.4540405273438,-
130,697.1318359375,77.43104553222656,-2.313262939453125,939.9539184570312,-
131,701.4080810546875,77.44578552246094,-2.35595703125,939.4537353515625,-
132,705.6798095703125,77.3792724609375,-2.393341064453125,938.95068359375,-
133,705.7589680941056,-,-,-,3.1542474106616804e-07
134,709.9727783203125,77.41805267333984,-2.43133544921875,938.4393310546875,-
135,714.3831176757812,77.57510375976562,-2.4656982421875,937.9137573242188,-
136,719.0968627929688,77.87451934814453,-2.501708984375,937.3694458007812,-
137,724.1126098632812,78.22937774658203,-2.547698974609375,936.8070678710938,-
138,729.114013671875,78.45538330078125,-2.60125732421875,936.2294311523438,-
139,733.8789672851562,78.51416015625,-2.648284912109375,935.6395874023438,-
140,735.6448097021531,-,-,-,3.224198265889544e-07
141,738.5932006835938,78.61578369140625,-2.6949462890625,935.0406494140625,-
142,743.5465087890625,78.92503356933594,-2.747283935546875,934.4351806640625,-
143,748.6021118164062,79.29097747802734,-2.801910400390625,933.8242797851562,-
144,753.6552124023438,79.48698425292969,-2.847869873046875,933.2089233398438,-
145,758.786376953125,79.58167266845703,-2.89013671875,932.5916748046875,-
146,764.2753295898438,79.8691635131836,-2.946807861328125,931.9764404296875,-
147,765.5306513102006,-,-,-,3.2859032096262065e-07
148,769.9646606445312,80.21629333496094,-3.008087158203125,931.3673095703125,-
149,775.3131103515625,80.36885833740234,-3.05950927734375,930.7682495117188,-
150,780.1473388671875,80.37804412841797,-3.10302734375,930.1827392578125,-
151,784.732666015625,80.5254898071289,-3.144683837890625,929.6117553710938,-
152,789.0911254882812,80.79824829101562,-3.1922607421875,929.0535278320312,-
153,793.3204345703125,80.98544311523438,-3.235931396484375,928.5045776367188,-
154,795.4164929182481,-,-,-,3.3041597150347624e-07
155,797.8130493164062,81.17340087890625,-3.277252197265625,927.9619750976562,-
156,802.8016357421875,81.4856948852539,-3.3193359375,927.4244995117188,-
157,807.9265747070312,81.69874572753906,-3.363189697265625,926.8951416015625,-
158,812.7102661132812,81.62757110595703,-3.401092529296875,926.3704833984375,-
159,817.1937866210938,81.51264190673828,-3.431243896484375,925.850341796875,-
160,821.5513916015625,81.7369155883789,-3.469390869140625,925.3330688476562,-
161,825.3023345262956,-,-,-,3.340092078625842e-07
162,825.8629760742188,82.22459411621094,-3.512542724609375,924.8137817382812,-
163,830.367919921875,82.6559066772461,-3.5531005859375,924.2845458984375,-
164,835.3507690429688,82.9828109741211,-3.5950927734375,923.7390747070312,-
165,840.6262817382812,83.1820068359375,-3.645782470703125,923.1737670898438,-
166,845.6477661132812,83.22847747802734,-3.6990966796875,922.5879516601562,-
167,850.4171752929688,83.27926635742188,-3.74957275390625,921.9869995117188,-
168,855.188176134343,-,-,-,3.3762985573355546e-07
169,855.2424926757812,83.47284698486328,-3.803497314453125,921.3785400390625,-
170,860.2793579101562,83.80391693115234,-3.85107421875,920.7706909179688,-
171,865.4234619140625,84.20352935791016,-3.89471435546875,920.169921875,-
172,870.399658203125,84.5013656616211,-3.9451904296875,919.5782470703125,-
173,874.9188842773438,84.50437927246094,-3.9942626953125,918.9966430664062,-
174,879.2711181640625,84.46509552001953,-4.03460693359375,918.4262084960938,-
175,883.9912109375,84.75017547607422,-4.08251953125,917.8717041015625,-
176,885.0740177423905,-,-,-,3.4887464743061667e-07
177,889.0586547851562,85.17375946044922,-4.1363525390625,917.3317260742188,-
178,893.97802734375,85.3431167602539,-4.185211181640625,916.8064575195312,-
179,898.2218627929688,85.2624282836914,-4.225128173828125,916.293701171875,-
180,901.724609375,85.19454193115234,-4.257476806640625,915.7877197265625,-
181,904.94140625,85.3841323852539,-4.28887939453125,915.2794189453125,-
182,908.7177734375,85.91548156738281,-4.324005126953125,914.7612915039062,-
183,913.4922485351562,86.3581314086914,-4.36541748046875,914.2283935546875,-
184,914.959859350438,-,-,-,3.6246436145873755e-07
185,919.0648803710938,86.15234375,-4.406280517578125,913.6808471679688,-
186,924.9124755859375,85.28466033935547,-4.430908203125,913.1226196289062,-
187,930.40234375,84.6563949584961,-4.439056396484375,912.559814453125,-
188,935.3934936523438,85.13446807861328,-4.507080078125,911.996826171875,-
189,940.2315673828125,86.01058197021484,-4.5810546875,911.4381103515625,-
190,944.8457009584855,-,-,-,3.753426259425007e-07
191,945.0216064453125,86.51263427734375,-4.620361328125,910.8839721679688,-
192,949.525390625,86.79269409179688,-4.674163818359375,910.331298828125,-
193,953.81591796875,86.5824966430664,-4.7242431640625,909.7767944335938,-
194,958.264404296875,85.81268310546875,-4.724517822265625,909.2162475585938,-
195,963.2330932617188,85.39730072021484,-4.738494873046875,908.6465454101562,-
196,968.8117065429688,85.5665512084961,-4.787841796875,908.0694580078125,-
197,974.65966796875,86.06739044189453,-4.861419677734375,907.489990234375,-
198,974.731542566533,-,-,-,3.968374361903494e-07
199,980.2942504882812,86.32669067382812,-4.92724609375,906.9148559570312,-
200,985.3736572265625,86.03348541259766,-4.971588134765625,906.3490600585938,-
201,990.08740234375,85.52503967285156,-5.0050048828125,905.7958374023438,-
202,994.6503295898438,84.85382843017578,-4.9981689453125,905.25537109375,-
203,999.1271362304688,84.64889526367188,-5.008087158203125,904.7261352539062,-
204,1003.4907836914062,85.1665267944336,-5.04766845703125,904.204345703125,-
205,1004.6173841745805,-,-,-,4.2651918152853615e-07
206,1007.6466064453125,86.20011138916016,-5.10797119140625,903.6875610351562,-
207,1011.6937866210938,87.22259521484375,-5.182098388671875,903.1729736328125,-
208,1015.8839111328125,88.02486419677734,-5.238922119140625,902.6590576171875,-
209,1020.29296875,88.7286376953125,-5.305938720703125,902.1469116210938,-
210,1024.8902587890625,88.69771575927734,-5.35858154296875,901.6372680664062,-
211,1029.5953369140625,87.88184356689453,-5.37835693359375,901.1292114257812,-
212,1034.2196044921875,87.21321868896484,-5.400421142578125,900.6207275390625,-
213,1034.5032257826279,-,-,-,4.64936974967141e-07
214,1038.588623046875,86.69902801513672,-5.423431396484375,900.1073608398438,-
215,1042.8575439453125,86.35539245605469,-5.445281982421875,899.584716796875,-
216,1047.0902099609375,86.47012329101562,-5.485595703125,899.0477294921875,-
217,1051.3878173828125,86.82767486572266,-5.537811279296875,898.4906616210938,-
218,1055.9334716796875,87.1261215209961,-5.59100341796875,897.9070434570312,-
219,1060.9017333984375,87.3559799194336,-5.63763427734375,897.2908325195312,-
220,1064.3890673906753,-,-,-,5.052427546761643e-07
221,1066.39404296875,87.6406021118164,-5.68377685546875,896.6376342773438,-
222,1072.7607421875,88.04186248779297,-5.74560546875,895.9461669921875,-
223,1080.2489013671875,88.57799530029297,-5.809814453125,895.2215576171875,-
224,1088.269775390625,89.12860107421875,-5.8721923828125,894.4761352539062,-
225,1094.2749089987228,-,-,-,5.598743893163813e-07
226,1095.895751953125,89.49435424804688,-5.949371337890625,893.7255859375,-
227,1102.7293701171875,89.58075714111328,-6.02691650390625,892.981689453125,-
228,1108.72998046875,89.54236602783203,-6.082855224609375,892.2525024414062,-
229,1114.2547607421875,89.84384155273438,-6.128082275390625,891.5394897460938,-
230,1120.017822265625,90.57193756103516,-6.18365478515625,890.83837890625,-
231,1124.1607506067703,-,-,-,6.6870269987635e-07
232,1126.0135498046875,91.19247436523438,-6.255279541015625,890.1430053710938,-
233,1132.0802001953125,91.34022521972656,-6.3165283203125,889.4490356445312,-
234,1138.406982421875,91.41732025146484,-6.369384765625,888.754638671875,-
235,1145.0399169921875,91.79212188720703,-6.431640625,888.06103515625,-
236,1151.5870361328125,92.29092407226562,-6.501068115234375,887.3690795898438,-
237,1154.0465922148178,-,-,-,1.0796597157826352e-06
238,1157.8419189453125,92.64541625976562,-6.56121826171875,886.6802978515625,-
239,1163.852294921875,93.01882934570312,-6.610076904296875,885.9955444335938,-
240,1169.9793701171875,93.5882568359375,-6.653472900390625,885.3153076171875,-
241,1176.3111572265625,94.08483123779297,-6.707489013671875,884.6383056640625,-
242,1182.6036376953125,94.34080505371094,-6.76312255859375,883.9623413085938,-
243,1183.9324338228653,-,-,-,1.3379041353003287e-05
244,1188.8104248046875,94.37942504882812,-6.8367919921875,883.2860717773438,-
245,1194.8951416015625,94.51935577392578,-6.9000244140625,882.6104125976562,-
246,1200.890625,95.05341339111328,-6.9615478515625,881.9342651367188,-
247,1206.798583984375,95.70404052734375,-7.024505615234375,881.2586669921875,-
248,1212.5985107421875,96.06980895996095,-7.075958251953125,880.585205078125,-
249,1213.8182754309128,-,-,-,5.213600409428979e-05
250,1218.304443359375,96.34794616699219,-7.11785888671875,879.9137573242188,-
251,1224.0279541015625,96.73242950439453,-7.166717529296875,879.2416381835938,-
252,1229.8480224609375,97.23175048828125,-7.221771240234375,878.5675048828125,-
253,1235.7227783203125,97.64593505859375,-7.27581787109375,877.8883056640625,-
254,1241.62255859375,97.798095703125,-7.334197998046875,877.2015991210938,-
255,1243.7041170389602,-,-,-,8.634292148218873e-05
256,1247.53076171875,97.74372863769531,-7.393157958984375,876.5044555664062,-
257,1253.5499267578125,97.83010864257812,-7.450164794921875,875.7953491210938,-
258,1260.0396728515625,98.533203125,-7.513519287109375,875.0720825195312,-
259,1266.924560546875,99.23570251464844,-7.582305908203125,874.335693359375,-
260,1273.831787109375,99.44427490234375,-7.646759033203125,873.5889282226562,-
261,1280.6588134765625,99.59632110595703,-7.709075927734375,872.8374633789062,-
262,1287.64013671875,100.0,-7.773834228515625,872.0886840820312,-
