,alt,rh,temp,pressure,att_bsc
0,155.74166870117188,94.0785140991211,3.49066162109375,1020.8270263671875,-
1,160.1042938232422,93.61730194091797,3.512298583984375,1020.2968139648438,-
2,163.87095642089844,93.53909301757812,3.49462890625,1019.5204467773438,-
3,167.50936889648438,92.98722076416016,3.475067138671875,1018.8961181640625,-
4,167.8138191492509,-,-,-,9.700197798351667e-07
5,171.67665100097656,92.21963500976562,3.452911376953125,1018.3162231445312,-
6,176.79498291015625,91.57186889648438,3.42681884765625,1017.5455932617188,-
7,182.5106964111328,91.01265716552734,3.3880615234375,1016.8974609375,-
8,188.3498077392578,90.443603515625,3.392059326171875,1016.2482299804688,-
9,193.6086883544922,90.093505859375,3.395355224609375,1015.605712890625,-
10,197.69966075729837,-,-,-,7.54151283677665e-07
11,198.68418884277344,90.04874420166016,3.371124267578125,1014.9738159179688,-
12,203.5907440185547,89.97895812988281,3.350128173828125,1014.3507080078125,-
13,207.92532348632812,89.82685089111328,3.322296142578125,1013.7308349609375,-
14,212.26467895507812,89.7286605834961,3.2906494140625,1013.1095581054688,-
15,217.1367645263672,89.6043472290039,3.2779541015625,1012.4822998046875,-
16,222.54071044921875,89.30353546142578,3.272430419921875,1011.8453979492188,-
17,227.58550236534586,-,-,-,7.511492280402169e-07
18,228.20018005371094,88.7116470336914,3.271820068359375,1011.1995849609375,-
19,234.43785095214844,87.72068786621094,3.27789306640625,1010.5474243164062,-
20,240.91018676757812,86.05512237548828,3.388153076171875,1009.8956909179688,-
21,246.7029266357422,84.28876495361328,3.52239990234375,1009.2511596679688,-
22,251.351318359375,83.38650512695312,3.5892333984375,1008.61962890625,-
23,255.44091796875,83.18387603759766,3.51519775390625,1008.0030517578125,-
24,257.47134397339335,-,-,-,9.287813113010429e-07
25,259.98870849609375,82.20158386230469,3.561279296875,1007.401611328125,-
26,265.3424377441406,80.52989196777344,3.6517333984375,1006.8140869140625,-
27,270.93634033203125,79.04283142089844,3.7244873046875,1006.2369384765625,-
28,275.2328186035156,78.13065338134766,3.807098388671875,1005.6669311523438,-
29,278.4886474609375,77.92503356933594,3.821258544921875,1005.10205078125,-
30,281.9743347167969,78.10443878173828,3.796112060546875,1004.538818359375,-
31,286.1103210449219,78.25568389892578,3.766693115234375,1003.9754028320312,-
32,287.35718558144083,-,-,-,8.451999537345287e-07
33,290.3162841796875,78.07716369628906,3.746124267578125,1003.4112548828125,-
34,294.384521484375,77.67562103271484,3.748992919921875,1002.8465576171875,-
35,298.36077880859375,77.45755004882812,3.744476318359375,1002.2800903320312,-
36,302.3878173828125,77.43009948730469,3.72052001953125,1001.7116088867188,-
37,306.63909912109375,77.27101135253906,3.690093994140625,1001.1414794921875,-
38,311.2444152832031,76.88462829589844,3.67901611328125,1000.5696411132812,-
39,316.06024169921875,76.79643249511719,3.659332275390625,999.9964599609375,-
40,317.2430271894883,-,-,-,7.071620652501746e-07
41,320.8843078613281,77.0379867553711,3.613189697265625,999.421142578125,-
42,325.7400817871094,77.26741027832031,3.56707763671875,998.842041015625,-
43,330.7926330566406,77.42277526855469,3.524261474609375,998.2572631835938,-
44,335.9656066894531,77.51611328125,3.481353759765625,997.6677856445312,-
45,340.7286376953125,77.5594482421875,3.437225341796875,997.0765380859375,-
46,345.03631591796875,77.64998626708984,3.3946533203125,996.4840698242188,-
47,347.1288687975358,-,-,-,6.215529902266573e-07
48,349.48297119140625,77.77449798583984,3.354339599609375,995.8924560546875,-
49,354.6138000488281,77.85723114013672,3.31524658203125,995.30078125,-
50,360.4059143066406,77.85272216796875,3.275634765625,994.7095336914062,-
51,366.31915283203125,77.8675308227539,3.230194091796875,994.1190185546875,-
52,371.5460205078125,77.93822479248047,3.186676025390625,993.5296020507812,-
53,375.9500732421875,78.12908935546875,3.1485595703125,992.9407958984375,-
54,377.0147104055833,-,-,-,5.718925146396149e-07
55,379.86767578125,78.28321075439453,3.110443115234375,992.348388671875,-
56,383.9235534667969,78.38555908203125,3.069000244140625,991.7501831054688,-
57,388.4407653808594,78.51533508300781,3.024017333984375,991.1427612304688,-
58,393.5720520019531,78.6695556640625,2.975738525390625,990.5274047851562,-
59,399.0540771484375,78.76731872558594,2.926544189453125,989.9091796875,-
60,404.5683898925781,78.74144744873047,2.87408447265625,989.2955322265625,-
61,406.9005520136308,-,-,-,5.057554446052978e-07
62,409.7619934082031,78.6441650390625,2.838134765625,988.6921997070312,-
63,414.5569763183594,78.59815216064453,2.8087158203125,988.1029052734375,-
64,419.2266845703125,78.69706726074219,2.7686767578125,987.5283203125,-
65,424.0567321777344,78.96513366699219,2.726318359375,986.965576171875,-
66,428.71875,79.2525863647461,2.684112548828125,986.4120483398438,-
67,433.15545654296875,79.54560852050781,2.6348876953125,985.864501953125,-
68,436.78639362167826,-,-,-,4.4879687994476377e-07
69,437.5909118652344,79.86849975585938,2.586639404296875,985.3209838867188,-
70,442.1535949707031,80.18158721923828,2.52581787109375,984.7799072265625,-
71,446.46795654296875,80.34765625,2.485870361328125,984.2392578125,-
72,450.56884765625,80.48963165283203,2.45196533203125,983.69580078125,-
73,454.7084655761719,80.77406311035156,2.414825439453125,983.14697265625,-
74,459.2439270019531,81.15438842773438,2.37225341796875,982.5933227539062,-
75,464.2703857421875,81.46574401855469,2.328521728515625,982.035400390625,-
76,466.67223522972574,-,-,-,4.381598790325231e-07
77,469.4341735839844,81.66154479980469,2.287872314453125,981.4752197265625,-
78,474.316650390625,81.7465591430664,2.242218017578125,980.9147338867188,-
79,478.7541198730469,81.7988510131836,2.201446533203125,980.3558959960938,-
80,482.8826599121094,81.98252868652344,2.16180419921875,979.7987060546875,-
81,487.2388610839844,82.24685668945312,2.120025634765625,979.2427368164062,-
82,492.1084899902344,82.41432189941406,2.076141357421875,978.6884765625,-
83,496.5580768377732,-,-,-,4.6241306432558503e-07
84,497.1604919433594,82.4897232055664,2.03228759765625,978.13623046875,-
85,502.0313415527344,82.54768371582031,1.98687744140625,977.5864868164062,-
86,506.8251037597656,82.66374969482422,1.94696044921875,977.039306640625,-
87,511.502197265625,82.85152435302734,1.90142822265625,976.4939575195312,-
88,515.9689331054688,82.97417449951172,1.8563232421875,975.9475708007812,-
89,520.433349609375,83.07295227050781,1.813690185546875,975.3983154296875,-
90,524.8809814453125,83.24441528320312,1.770477294921875,974.8447875976562,-
91,526.4439184458207,-,-,-,5.056636427131372e-07
92,529.2057495117188,83.50373840332031,1.7266845703125,974.2874145507812,-
93,533.4996337890625,83.74303436279297,1.682403564453125,973.7288208007812,-
94,537.9962158203125,83.86585998535156,1.6356201171875,973.1739501953125,-
95,542.64697265625,83.9248275756836,1.593292236328125,972.6260986328125,-
96,547.2041625976562,84.11315155029297,1.551788330078125,972.0853271484375,-
97,551.5643310546875,84.37848663330078,1.506256103515625,971.5508422851562,-
98,555.901611328125,84.58161926269531,1.466583251953125,971.0196533203125,-
99,556.3297600538682,-,-,-,5.667293293695711e-07
100,560.6170654296875,84.8738784790039,1.425628662109375,970.488037109375,-
101,565.6844482421875,85.27626037597656,1.373992919921875,969.95458984375,-
102,570.7979125976562,85.53128051757812,1.320587158203125,969.4177856445312,-
103,575.6472778320312,85.67276763916016,1.2733154296875,968.8768310546875,-
104,580.1814575195312,85.92821502685547,1.23138427734375,968.331298828125,-
105,584.401611328125,86.21868133544922,1.192626953125,967.7822875976562,-
106,586.2156016619157,-,-,-,6.241901734780607e-07
107,588.62255859375,86.47737121582031,1.157623291015625,967.2298583984375,-
108,592.9485473632812,86.69437408447266,1.115509033203125,966.6746826171875,-
109,597.2735595703125,86.77205657958984,1.06768798828125,966.11767578125,-
110,601.7418212890625,86.78911590576172,1.015869140625,965.558837890625,-
111,606.6923217773438,86.97987365722656,0.960052490234375,964.9968872070312,-
112,611.9297485351562,87.36204528808594,0.911956787109375,964.4325561523438,-
113,616.1014432699632,-,-,-,6.853889322671929e-07
114,617.0185546875,87.75276184082031,0.865814208984375,963.8676147460938,-
115,621.7302856445312,88.00967407226562,0.823028564453125,963.3024291992188,-
116,626.25927734375,88.15509033203125,0.78314208984375,962.7359619140625,-
117,630.7572631835938,88.29833221435547,0.741058349609375,962.166748046875,-
118,635.2952880859375,88.45369720458984,0.69549560546875,961.5919799804688,-
119,640.0391845703125,88.57125091552734,0.65606689453125,961.0106201171875,-
120,645.0099487304688,88.70523071289062,0.6112060546875,960.422607421875,-
121,645.9872848780107,-,-,-,7.636940387308437e-07
122,649.9697875976562,88.91410064697266,0.5645751953125,959.8304443359375,-
123,654.990478515625,89.27409362792969,0.51934814453125,959.2379760742188,-
124,660.1962280273438,89.62799835205078,0.466888427734375,958.6487426757812,-
125,665.5328369140625,89.6514892578125,0.41693115234375,958.0660400390625,-
126,670.537841796875,89.4747314453125,0.368194580078125,957.4924926757812,-
127,675.1136474609375,89.3643798828125,0.323577880859375,956.9288940429688,-
128,675.8731264860581,-,-,-,8.534724550690905e-07
129,679.560791015625,89.47474670410156,0.28472900390625,956.3738403320312,-
130,684.246337890625,90.00109100341797,0.2491455078125,955.8246459960938,-
131,688.97314453125,90.8387451171875,0.205810546875,955.2783813476562,-
132,693.64794921875,91.8066177368164,0.152496337890625,954.7316284179688,-
133,698.361328125,92.52452087402344,0.1005859375,954.1826171875,-
134,703.1298828125,93.0194320678711,0.0460205078125,953.6300048828125,-
135,705.7589680941056,-,-,-,9.622846664761909e-07
136,707.7285766601562,93.3189468383789,-0.002838134765625,953.0722045898438,-
137,712.3583984375,93.4530258178711,-0.04913330078125,952.5082397460938,-
138,717.042724609375,93.36064147949219,-0.095184326171875,951.9374389648438,-
139,721.5375366210938,92.93437194824219,-0.136260986328125,951.3595581054688,-
140,725.9903564453125,92.59911346435547,-0.174072265625,950.7754516601562,-
141,730.7050170898438,92.63236999511719,-0.216949462890625,950.18701171875,-
142,735.6448097021531,-,-,-,1.1323903018612311e-06
143,735.6769409179688,92.9078598022461,-0.262054443359375,949.5935668945312,-
144,740.7578735351562,93.27831268310547,-0.310089111328125,948.9956665039062,-
145,745.8196411132812,93.65787506103516,-0.356201171875,948.3939208984375,-
146,750.9729614257812,94.11015319824219,-0.40423583984375,947.7904663085938,-
147,756.2716064453125,94.56138610839844,-0.460784912109375,947.1868286132812,-
148,761.5913696289062,94.72045135498047,-0.51458740234375,946.5869750976562,-
149,765.5306513102006,-,-,-,1.3861125101045912e-06
150,766.9232177734375,94.61628723144531,-0.561492919921875,945.994873046875,-
151,772.178955078125,94.59728240966797,-0.605499267578125,945.4125366210938,-
152,777.1470336914062,94.75816345214844,-0.656463623046875,944.840087890625,-
153,781.746337890625,94.94294738769531,-0.699981689453125,944.2800903320312,-
154,786.1071166992188,95.35700225830078,-0.7379150390625,943.7322998046875,-
155,790.3059692382812,95.90250396728516,-0.78173828125,943.1962890625,-
156,794.4561157226562,96.09681701660156,-0.829559326171875,942.6690063476562,-
157,795.4164929182481,-,-,-,2.085836796665233e-06
158,798.56689453125,95.9800796508789,-0.86932373046875,942.1439208984375,-
159,802.8033447265625,96.04029846191406,-0.909942626953125,941.611083984375,-
160,807.1896362304688,96.2598876953125,-0.949310302734375,941.062744140625,-
161,811.81884765625,96.53140258789062,-0.99188232421875,940.4918823242188,-
162,816.994140625,96.9345474243164,-1.037017822265625,939.89794921875,-
163,822.7344970703125,97.40901947021484,-1.0919189453125,939.285888671875,-
164,825.3023345262956,-,-,-,6.0407466420820496e-06
165,828.5702514648438,97.70155334472656,-1.1524658203125,938.6654663085938,-
166,834.0390014648438,97.70455932617188,-1.209747314453125,938.0443115234375,-
167,838.967041015625,97.60790252685547,-1.255645751953125,937.4274291992188,-
168,843.4927368164062,97.63223266601562,-1.296234130859375,936.81640625,-
169,848.15576171875,98.21097564697266,-1.334716796875,936.2102661132812,-
170,853.2997436523438,99.39777374267578,-1.382110595703125,935.608642578125,-
171,855.188176134343,-,-,-,3.15436070474777e-05
172,858.8526611328125,100.0,-1.43743896484375,935.0145874023438,-
173,864.3693237304688,100.0,-1.49444580078125,934.4306640625,-
174,869.359130859375,100.0,-1.54608154296875,933.8607788085938,-
175,873.660400390625,100.0,-1.58721923828125,933.3056030273438,-
176,877.6336669921875,100.0,-1.6224365234375,932.7647705078125,-
177,881.6362915039062,100.0,-1.654876708984375,932.2333374023438,-
178,885.0740177423905,-,-,-,5.674526795395983e-05
179,885.80810546875,100.0,-1.68243408203125,931.7080078125,-
